1.003152205370481775e+00,1.002349471188254126e+00,1.011280636803663313e+00,9.948841295854338185e-01,9.978028014281790092e-01,9.986819228540216864e-01,1.009714873869156149e+00,1.008133414812040440e+00,9.990824166712729548e-01,9.970655752665903426e-01,1.004335856613119526e+00,1.002159929262316673e+00,1.004923504396591172e+00,1.002140147326517017e+00,1.003207357340121675e+00,1.004158169873859974e+00,1.001944621535642233e+00,9.976593479790089036e-01,9.951349434992060594e-01,1.002102474007084965e+00,9.978589087056330964e-01,1.004140117259146869e+00,9.995818539834109284e-01,1.004773633847025671e+00,1.000990767531596770e+00,1.001735161036291455e+00,9.992785540704738345e-01,1.001839926402943837e+00,1.002158725174660425e+00,1.002354550896496610e+00,1.000750537885484626e+00,9.977955434721370587e-01,9.988155278404553528e-01,1.003814387491331006e+00,1.002352622992598974e+00,9.989947377599064371e-01,9.986397142382230641e-01,1.000851081007437582e+00,1.000411987507475731e+00,1.000044445102890478e+00,1.000926185615424124e+00,1.003744881752079987e+00,1.002518802952107491e+00,1.004685934587143059e+00,1.003012940131328579e+00,1.003463068888336363e+00,1.003925117984428850e+00,1.000376422824938993e+00,1.001961100567829943e+00,1.002616490615151790e+00,1.003674167536708461e+00,9.998383650774526066e-01,1.000644643538435297e+00,1.004007667346210830e+00,1.000992271868005989e+00,1.002109674030696285e+00,1.001238697072024397e+00,1.000412340551765089e+00,1.001465442745000933e+00,1.000647869683873648e+00,1.002935807679288249e+00,9.994427673626422592e-01,1.000687385401259233e+00,1.004215411195114260e+00,1.004332821502956996e+00,1.000437971073538268e+00,1.003060857039971054e+00,1.003816049786650400e+00,9.989878900454522981e-01,1.003986097878808437e+00,1.000236920889961079e+00,1.002307591451422564e+00,1.000143767052145360e+00,9.999442676046693679e-01,1.002458211198027138e+00,1.000760647098954736e+00,1.000324646577929855e+00,1.001587047229292704e+00,1.000798274627840767e+00,9.997003214733286569e-01,1.001053596310177651e+00,1.000523218558385885e+00,1.001374802210059478e+00,1.002743895994080869e+00,1.001265133957797593e+00,1.000985091026199703e+00,9.996460824508590637e-01,1.000757411393909724e+00,1.001921719250580489e+00,1.002933143776422620e+00,1.000909335889481833e+00,1.003051687271714121e+00,1.002681373377078966e+00,1.001271115843975545e+00,1.001699365896355776e+00,1.001659724426035014e+00,1.001599199968964404e+00,1.001336764818790082e+00,1.003507364236756905e+00,1.002506693726232800e+00,1.000966619027569449e+00,1.001273766075688521e+00,1.000878303773424571e+00,9.997593085731217855e-01,1.001328287942989670e+00,1.002518127657626268e+00,1.002456059266276123e+00,1.002079196757370338e+00,1.003595011849159002e+00,1.002158753317559547e+00,1.000481194364915005e+00,1.000987138114003860e+00,1.002006695482255072e+00,1.000888768555250774e+00,1.002192768303401094e+00,1.000252454001395952e+00,1.002473139592444884e+00,1.001738723308896573e+00,1.001739382227736286e+00,1.002558126887122203e+00,1.002016466465154521e+00,1.003215941999635596e+00,1.002980212244798386e+00,1.001719734412478635e+00,1.003231868336003529e+00,1.002545632141120358e+00,1.001583556053502910e+00,1.002736468395687419e+00,1.001901221455124835e+00,1.001965192005149108e+00,1.000428247045688668e+00,1.000302713681681999e+00,9.999717785178077190e-01,1.001357356808645349e+00,1.000029390730163614e+00,1.001438914696957116e+00,1.002607879802428048e+00,1.001366674077658336e+00,1.001853103403169909e+00,1.001786886798924581e+00,1.001747241155203971e+00,1.001518756314571545e+00,1.000236874130737030e+00,1.001188323093296306e+00,1.003596841374522652e+00,1.000321151980835044e+00,1.000687842972175945e+00,1.000639252259360568e+00,1.002919598661045297e+00,1.001206374876101979e+00,1.001002082760246825e+00,1.002423691999627886e+00,1.001493998248415673e+00,1.001147436200677143e+00,1.001222481759227234e+00,1.000993998375067306e+00,1.001101244639333920e+00,9.993085728050532524e-01,1.001665527605364980e+00,1.001836739960482614e+00,1.003218176096159597e+00,1.001084263227841387e+00,1.001852016374285004e+00,1.002771071115013068e+00,1.001623695613953480e+00,1.001574552095956250e+00,1.002437773988009928e+00,1.002617788820804101e+00,9.999812045973553998e-01,1.001900023528605077e+00,1.002200472976595425e+00,1.002789847116377864e+00,1.000561079879675574e+00,1.001278464675729341e+00,1.001668160907714711e+00,1.003022050230941931e+00,9.998321640763989659e-01,1.000969022537588682e+00,1.000836889799411544e+00,1.000682237637624983e+00,1.000736051818047923e+00,1.000740524416445787e+00,1.001536620146709744e+00,1.002861652265408132e+00,9.988124979895565136e-01,1.002673241946706151e+00,1.001130644302595574e+00,1.002806012486616494e+00,1.001350837941660687e+00,1.002460871286106503e+00,1.001438334150183129e+00,1.002057640483744683e+00,1.000225564695988112e+00,1.001836047479490510e+00,1.001443642420877245e+00,9.995862378279697369e-01,9.989724880056810585e-01,9.985170135134693314e-01,1.001943179675081508e+00,1.000336459892607444e+00,1.001106579404976493e+00,1.002462214341860225e+00,9.996857478374489014e-01,1.002250196963084372e+00,1.002741686939244925e+00,9.988933662115835332e-01,9.988939631059169377e-01,1.002031205526948909e+00,9.995754948835963161e-01,1.001315487252302017e+00,9.993474549539246299e-01,9.973600364132908513e-01,9.932232952227031397e-01,9.969117161057993171e-01,9.901456422902058518e-01,9.929648445851702032e-01,9.833169540012651755e-01,9.781872573940333382e-01,9.842340289802241626e-01,9.632065231110998882e-01,9.843509320236634164e-01,9.664954626500252832e-01,9.774777698448756658e-01,1.011023379819524060e+00,9.868615757140934974e-01,9.640285153124318329e-01,9.870992141866621328e-01,9.701133144475919678e-01
9.944230212676089531e-01,1.003130218536966156e+00,9.935663549149433837e-01,1.002286875081785267e+00,1.009338093930238989e+00,1.005697991086311083e+00,1.004270571877426299e+00,1.004443217883262074e+00,1.001271350395224191e+00,1.000224644955667763e+00,1.003353380842404663e+00,1.001005717062766198e+00,1.005777408806736384e+00,1.001037750293462203e+00,9.946994199747462018e-01,9.974028044398094428e-01,9.987729982732274081e-01,1.000068476521890792e+00,1.001784549200229968e+00,1.000702744736614580e+00,1.000093810701041974e+00,1.001277552188801989e+00,1.001406491146708433e+00,9.998910129258670176e-01,1.004248466862654565e+00,1.005018619612658703e+00,1.001139125151883302e+00,1.001546840781236014e+00,1.001946777612057415e+00,1.000096918559904235e+00,9.997831779441933575e-01,1.002146301038257192e+00,1.000873615212695800e+00,1.000189143181388296e+00,1.001978145051256819e+00,1.000164124447362246e+00,1.002639157911876522e+00,1.002940098025693949e+00,1.001069838527476996e+00,1.001377798189602819e+00,9.984900565495019586e-01,9.997814271350925486e-01,1.000731781912977292e+00,9.996639316195958802e-01,1.002984737883609423e+00,1.001728425764735197e+00,9.998245241371666037e-01,1.001802867214181436e+00,1.000224599526984504e+00,1.001997857197291841e+00,1.000635315547459880e+00,9.999177131303395027e-01,1.001434002973253801e+00,1.002128529545672109e+00,1.003521478702369185e+00,1.001587333830523896e+00,1.000659565973415432e+00,1.000625927024621831e+00,1.001873349488454856e+00,1.001677657773276664e+00,1.002537195860764285e+00,9.998497894629732041e-01,1.002565686714579352e+00,9.998459817990665854e-01,1.001231433479787825e+00,1.001996333265430694e+00,1.000186844769365591e+00,1.002076704126453555e+00,9.999578989203599111e-01,9.988503886820848665e-01,9.992826101723558674e-01,1.001540579520125762e+00,1.001219596903031528e+00,9.995716567330306113e-01,1.001464835280928334e+00,1.002397998792374789e+00,9.988986869676921287e-01,9.990077102760537286e-01,1.001210385812385528e+00,1.000463139541219348e+00,1.000463463157659438e+00,1.000338034461878634e+00,1.002360509455007653e+00,9.994715146390444893e-01,9.991768342370662692e-01,9.993775523735551891e-01,9.995506440106413093e-01,1.001038030366610432e+00,1.001875842663696670e+00,1.000239440308279271e+00,1.000554953296557859e+00,1.000413110504031255e+00,1.001503662798858940e+00,1.000641965930367139e+00,1.000306181799142546e+00,1.001699531274361066e+00,1.001017280842791290e+00,1.000503784695673026e+00,9.997676767780147022e-01,1.002253512636448907e+00,1.000913247424820129e+00,1.001203543137365815e+00,1.001607971523654328e+00,1.000466998903942972e+00,1.001362714412354471e+00,1.000766884332095152e+00,9.992417919683425076e-01,1.001098840198058726e+00,1.000126544417090368e+00,1.001726810679541835e+00,1.000672129203097782e+00,1.000114422689049487e+00,1.002094409223587279e+00,1.001418498157718107e+00,1.000257450529549175e+00,1.000626679932876906e+00,1.000518931022015279e+00,9.999199667061497987e-01,1.001051672722665931e+00,1.001796731640403948e+00,1.000927574573970968e+00,1.000755381842483693e+00,1.000674131940737510e+00,1.001001985567318009e+00,9.994817105399550483e-01,1.002097683837672726e+00,1.001752552154074438e+00,1.000554461624087565e+00,1.000543813064259213e+00,1.000692904211079926e+00,1.000214662876806049e+00,1.001357329088831793e+00,9.999717785178077190e-01,1.001102852407024457e+00,1.001929991280749999e+00,1.001928711681549178e+00,1.000002176861270797e+00,1.001955194015406114e+00,1.002029693256883736e+00,1.001238080615708181e+00,1.000042456327135731e+00,9.998957077208877608e-01,1.002055806675938854e+00,1.002559465124023053e+00,1.001644394307531938e+00,1.001219509548846531e+00,1.001508046894833637e+00,9.997796804606956522e-01,9.988740707283362275e-01,1.000169544577181879e+00,1.001591543207450696e+00,1.000651059476197924e+00,1.002914557111179494e+00,1.000573168035045812e+00,1.000726434156294697e+00,9.998184680027717430e-01,1.000562266900445474e+00,1.002159037176479028e+00,1.000417220817193531e+00,1.001513599393213827e+00,9.990761702689258117e-01,1.000146154604379722e+00,1.001564988006314660e+00,9.999108318700613562e-01,1.001065227058835605e+00,1.000638831481338142e+00,1.002814425762981410e+00,1.002197448064564345e+00,1.002243701190688618e+00,1.001304123181114836e+00,9.996056542743620987e-01,9.996580187405729179e-01,1.000604518321972947e+00,1.001562837997136857e+00,1.002197269213245256e+00,9.992904537024125400e-01,1.003323151287301540e+00,9.988534275264917550e-01,1.001813892370670311e+00,9.997428880544773078e-01,1.001177682908876765e+00,1.003228060660422694e+00,9.990006043775898625e-01,1.003005133437489871e+00,1.002600173702325792e+00,1.001428170355089575e+00,1.001180041383777031e+00,1.000778675417495212e+00,1.000717632656507261e+00,1.003777351379722793e+00,1.000522105116193883e+00,1.000703580294441730e+00,1.000333118723214287e+00,1.001262945954100481e+00,9.995558023320377794e-01,1.002144614616859331e+00,1.000068928261709456e+00,9.982818262292618705e-01,9.969724115634345241e-01,9.986987928643037415e-01,9.998419172278605327e-01,1.000814756057729182e+00,9.990241643373414249e-01,9.991214596239847978e-01,1.002108087389804503e+00,1.000408973356588627e+00,9.996009997746578835e-01,1.000478691748389215e+00,9.982885741096564347e-01,9.970975757449207499e-01,9.949265224646458572e-01,1.000364132908511561e+00,9.943754150431644012e-01,9.937835466262492368e-01,9.944732989134623669e-01,9.872837784180572562e-01,9.820278276231134695e-01,9.817385957989593903e-01,9.974536428988801662e-01,9.775200060586171080e-01,9.914499386092198163e-01,9.698485775873539882e-01,9.879924709547607264e-01,9.674169401148481340e-01,9.604950450652436356e-01,9.885793263984870016e-01,9.886120099172164277e-01,1.028328611898016831e+00
1.007376004129936442e+00,1.001048225607067188e+00,9.939278708718559674e-01,1.003857154429496301e+00,1.004188409777533542e+00,1.002466907031967169e+00,1.000532692898029818e+00,1.002101362139998786e+00,1.001006025095351193e+00,9.961810357536486915e-01,1.000835786679948214e+00,1.001856189209803238e+00,1.000288023312945862e+00,1.002262635885745379e+00,1.004058151076659300e+00,1.002185364039137161e+00,9.994649888032087759e-01,9.982196104308418416e-01,1.003125195510920387e+00,9.980069698453385429e-01,1.001583745364647893e+00,9.960295162265030422e-01,1.000767868139554206e+00,1.000544935370665023e+00,1.000030163882694945e+00,9.966097622829379610e-01,1.001670716889428991e+00,9.994952414292809229e-01,1.000215872517465909e+00,1.002115105042615584e+00,1.001350968193872371e+00,1.002767837833417275e+00,9.981080603062477685e-01,1.002553432948742218e+00,9.992319734814140153e-01,1.001456604470339684e+00,9.981512325681585196e-01,1.000699702962636550e+00,9.981992158947439187e-01,1.001022237366479439e+00,9.991944794119372864e-01,9.987031343348827805e-01,1.002518802952107491e+00,9.990361812486524551e-01,1.000925973800111946e+00,1.002539791096742183e+00,9.992149764031141856e-01,1.000321559579198771e+00,1.001092850047407223e+00,9.989853814233650153e-01,1.001221760668192129e+00,1.000208655990924900e+00,9.993816684427253572e-01,9.986312453057804017e-01,1.001044420462529061e+00,1.001587333830523896e+00,9.995013037761979469e-01,1.000839513497478572e+00,9.980934136657824141e-01,1.000787030236495623e+00,1.002736501770026267e+00,9.983089200831488652e-01,1.001552000291517697e+00,1.000297991736588843e+00,9.994374933487388812e-01,1.000499083316357618e+00,9.982912196547107930e-01,9.991777946927918874e-01,1.000776343908563071e+00,1.000652391909005345e+00,1.000535142989212645e+00,1.001275075390061442e+00,9.990679372012593040e-01,1.000144904227859399e+00,1.000216019842289805e+00,9.995749786313057328e-01,9.988707269753346329e-01,1.000810472662726269e+00,9.997817337059632381e-01,1.002016019179425621e+00,9.969494884767561294e-01,1.000126395494441711e+00,9.997665430209332627e-01,1.000562308424056690e+00,1.000121541253587543e+00,1.001935000230035122e+00,9.989064345391714950e-01,1.000032479047766376e+00,1.000522483350622105e+00,9.988027984586029806e-01,9.986722957716496207e-01,9.985159520016476664e-01,9.998762809089545289e-01,9.986077145430332092e-01,9.998144697648319035e-01,1.000465518976256352e+00,9.997564560694165436e-01,9.994057654424732817e-01,1.000467716794922080e+00,9.985823868345833354e-01,1.001002200096068995e+00,9.995006368830378074e-01,9.990020152728339431e-01,9.995176582162559331e-01,9.985397439244453333e-01,1.000062953191440673e+00,1.001906024220640568e+00,9.991897247930836556e-01,1.000281848928974204e+00,9.996189306060155877e-01,1.001071356592025285e+00,1.000777686412014811e+00,1.000901502341469573e+00,9.985049853441476664e-01,9.997780598883196923e-01,1.000305914848750310e+00,1.001092643629847734e+00,9.992356820437301446e-01,1.000092498939278540e+00,9.997300873993114623e-01,9.993849777281278435e-01,9.994613094635371731e-01,1.001918683215945016e+00,9.992720268123158611e-01,1.001107394707700049e+00,1.000231232573307594e+00,1.000156477870899563e+00,9.987329603190999716e-01,9.989187466808284732e-01,9.992856768024880321e-01,1.000467080530940134e+00,9.987598504008514677e-01,1.000401613400428102e+00,9.994779396889825751e-01,9.995199514073260794e-01,1.000557280124691362e+00,1.000374420138578913e+00,1.001660934046532336e+00,1.000675837711744398e+00,1.000414871340883805e+00,9.981809096757968680e-01,1.000384577779226181e+00,1.001019210709318541e+00,9.987986184111727894e-01,9.996138493578617945e-01,9.990322041658620256e-01,9.984615751821047658e-01,9.993889660067570846e-01,9.990499632471496749e-01,9.988001460691741107e-01,9.991944040554878725e-01,1.000316228888439074e+00,9.993631599542701638e-01,1.000909807994208922e+00,9.993176589639659602e-01,1.001830816606192887e+00,9.988654851298702786e-01,1.000031225744287822e+00,1.001162178094005428e+00,1.001594384535031024e+00,1.000233495426535280e+00,1.000492846921746004e+00,1.000396372508149501e+00,9.992729367866549639e-01,1.000548126544837713e+00,9.991624722893848176e-01,9.995710354785046770e-01,1.000263880585861687e+00,1.001228749447885091e+00,9.998782187781914965e-01,1.000506335146211789e+00,1.000111593884654981e+00,1.000191853120147245e+00,9.990909775879794896e-01,9.996178662237833468e-01,1.001489430228152955e+00,9.989594172736732114e-01,9.991235034853552799e-01,9.999734921782992281e-01,9.976350792337556062e-01,9.997598146699000488e-01,9.993559523561191815e-01,9.987635935580460034e-01,1.000757261741542559e+00,1.001128528998638245e+00,1.000988733322754287e+00,9.987348858652996819e-01,9.976000111239344825e-01,9.974756215965216999e-01,9.977370309501889523e-01,9.974854603178296975e-01,9.990840181072362380e-01,9.986660313012095669e-01,9.994344791826178520e-01,9.980288728484175698e-01,1.000126339594513025e+00,1.000703709462567925e+00,1.001192268871329727e+00,9.986697470161920442e-01,9.996257742010794534e-01,9.981030067343260592e-01,1.001428515026327126e+00,9.985610558872661802e-01,9.993595157258727824e-01,9.967576911945307261e-01,1.000950261622661985e+00,9.970705527496903642e-01,9.980722953916215667e-01,1.000862415657536086e+00,9.949677392411935273e-01,9.965301940538939807e-01,9.945380063723259223e-01,1.001048109003336295e+00,9.917835694180122674e-01,9.961377822300995222e-01,9.930870180511296441e-01,9.880437507211546899e-01,9.837207381644994530e-01,9.860674060930304519e-01,9.663872970994370482e-01,9.694832012501395369e-01,9.786305452803577554e-01,9.802038034659569243e-01,9.948728465955700706e-01,9.962781938029684481e-01,9.895613588419291951e-01,1.006387359751229171e+00,9.650141643059489960e-01
9.993507864869727308e-01,1.003130218536966156e+00,1.002724759156730538e+00,9.965665717436954507e-01,9.976998077451249003e-01,9.887117206291895499e-01,1.006302027844489633e+00,1.004585148534368866e+00,9.995467359460504797e-01,1.003510077432308023e+00,9.945110989059723350e-01,1.005501069839962680e+00,1.005106483913050797e+00,9.957094979670302326e-01,9.974948851090839064e-01,1.001288634114263276e+00,9.953130456233201251e-01,9.958665081331432578e-01,1.000819283856532849e+00,9.969701333486938877e-01,9.974615927953381922e-01,9.994168848930778948e-01,9.976659849619486931e-01,1.000893694007890744e+00,1.000280756138930194e+00,1.002696173302545235e+00,9.978356622114216146e-01,9.996417842401348341e-01,9.982730198602715044e-01,9.984207975827370518e-01,9.961138816151575703e-01,9.999872784866487008e-01,1.002417180741876246e+00,1.000788096589118048e+00,9.947382381853077105e-01,9.998256177746775997e-01,9.992197862214247106e-01,9.993675761683861181e-01,1.001219350122931839e+00,1.000933347160698705e+00,9.998402003691697626e-01,9.997814271350925486e-01,9.968983335548428082e-01,1.001433046301345442e+00,1.001461816506775682e+00,1.000469410594379660e+00,1.000849672598982165e+00,1.000458717693549104e+00,9.978911762533483332e-01,1.002697181930524817e+00,9.997823044627586198e-01,1.002853591087156548e+00,9.964347265527357944e-01,1.001423852870469977e+00,9.993495911405332333e-01,9.985577606695241748e-01,9.997382210438107153e-01,1.000252150697122477e+00,9.981749950144731542e-01,9.974750090840917016e-01,1.000942748586667985e+00,9.988903802264788023e-01,1.000299799415970803e+00,9.991227658990310401e-01,1.000775347005792293e+00,1.001996333265430694e+00,1.001868447693656128e+00,9.997270617433803297e-01,9.991091411548157497e-01,9.980695206170858702e-01,9.979406107257234870e-01,9.998295529041562046e-01,9.988353253416083488e-01,1.001348723967000032e+00,1.002344682521787211e+00,1.000817107502176118e+00,9.989546069524073424e-01,9.997010804247739024e-01,9.990674076527520375e-01,1.001825314662452948e+00,9.981297547817924443e-01,1.000073485752582370e+00,9.990921117480739966e-01,9.999281259909099662e-01,9.999723769878210433e-01,9.956996987894747297e-01,1.000457309192710031e+00,9.957530397140804679e-01,9.996508281998283119e-01,9.993190916233304355e-01,9.972104675758384218e-01,1.000565755441004567e+00,9.975636855917221490e-01,9.997821277151022201e-01,9.988925097004995868e-01,9.994703477681075032e-01,9.986896043380993904e-01,1.000181951466286856e+00,9.994729230866852276e-01,9.993600144674907870e-01,9.988317549176002341e-01,1.000782205507428912e+00,9.985155701060141054e-01,9.992587471196140436e-01,9.987118762712691167e-01,9.992903458419416518e-01,1.000101221727148326e+00,9.998776943083900193e-01,9.995053263695558021e-01,9.974419397104065110e-01,9.987801385338325177e-01,9.992766158810935107e-01,9.984981458289680090e-01,9.989817419863683545e-01,1.000062143231270406e+00,1.000608859650425453e+00,9.980447954007373168e-01,9.993977494637769077e-01,9.995314727640894903e-01,9.996938304828011379e-01,9.990038655662136780e-01,9.998805160088296562e-01,9.999969496292274718e-01,1.001167619916201401e+00,9.985765000374605682e-01,9.975995362905525354e-01,9.997245989472168803e-01,1.001635978023923901e+00,9.990716941051513977e-01,9.981483286229412277e-01,1.000234079619431782e+00,1.002490064155770577e+00,9.987799636159967465e-01,9.985382311291511881e-01,1.000558423873110447e+00,1.000204626295785104e+00,1.000276461381392590e+00,1.000346572852229166e+00,9.982428219494647870e-01,9.998268647160091227e-01,9.995329804015061770e-01,9.977446794641983141e-01,9.975378129346313960e-01,1.000228523671787828e+00,9.978371225269002665e-01,9.985634958695080998e-01,9.984029891876291529e-01,9.999359662422711015e-01,9.993626610583735692e-01,9.973720590536804265e-01,9.966597241325106937e-01,9.984451167803740645e-01,9.983963907282227268e-01,9.993652246521662619e-01,9.993375008680832616e-01,9.983639982201009122e-01,9.982466588370723093e-01,9.998706362022357075e-01,1.000940704309007279e+00,9.993122042786952708e-01,9.991776900195933342e-01,9.995139509668296007e-01,9.995352874042384705e-01,1.002071444249341470e+00,9.978798878926086191e-01,9.991208847065129461e-01,9.972692746314566481e-01,9.979730234643551245e-01,9.993468597581031121e-01,1.001453098267987230e+00,1.001278347322082762e+00,9.984052873902509173e-01,9.998009071394700076e-01,9.986753550413071112e-01,9.991108040976498517e-01,9.992682418183141957e-01,9.984670985644433783e-01,9.998437060423244205e-01,1.001382193560114153e+00,9.982536753007065222e-01,1.000503614401822228e+00,9.998487661403032689e-01,9.993324195249513320e-01,9.995376717788476695e-01,9.989572499276241357e-01,9.981812189495014032e-01,9.995499377047921685e-01,9.973997803022929265e-01,9.976782472877707697e-01,1.000008604445056459e+00,9.984016893518188329e-01,1.001553186687729857e+00,1.000494449764053329e+00,9.987522154619153936e-01,9.984730705163797904e-01,9.996430906455006093e-01,1.000559441007827344e+00,9.989873880818843643e-01,9.985181992079100732e-01,1.001356139363060782e+00,9.978500742989029337e-01,9.981335984580651521e-01,9.985941350622715706e-01,9.978631630854338797e-01,9.959480917702459024e-01,1.002032838154808481e+00,9.992288752121626372e-01,9.998576862369653595e-01,9.980874927387283213e-01,9.991856507485749050e-01,9.986106328723781678e-01,9.964041875284478378e-01,9.951434949234719829e-01,9.898348736766532374e-01,9.912552978346306221e-01,9.823968397796805085e-01,9.884734595138719992e-01,9.835555596340377349e-01,9.862603931575364413e-01,9.856991391714841066e-01,9.828775532983592411e-01,9.779918567208665259e-01,9.807879535276172733e-01,9.512664068908940340e-01,9.672212008430114416e-01,9.921801120244417849e-01,9.681892675547336680e-01,9.569405099150141147e-01
9.948454011435543531e-01,1.000137353700236487e+00,1.008870530424245793e+00,9.958935948803907534e-01,9.959489151332050483e-01,9.990511896030895844e-01,1.000370176420664725e+00,9.919533205858581670e-01,9.971588082471947168e-01,9.993401054427260011e-01,9.954321699410173530e-01,9.999122528737183213e-01,1.000410009657252353e+00,9.947295894932036697e-01,9.974948851090839064e-01,1.002006018054162340e+00,9.996956523132026762e-01,9.981075579404752318e-01,1.005002100345886662e+00,9.969701333486938877e-01,1.001136764965566028e+00,9.994168848930778948e-01,9.976659849619486931e-01,1.000021797414826663e+00,9.991530909858716836e-01,9.996930099705022554e-01,9.987089914945321834e-01,9.998982341591292622e-01,9.998979511735613945e-01,1.001191528177646006e+00,9.999833213803225318e-01,1.000347115578583468e+00,9.973684351568488093e-01,1.000409810226341234e+00,1.001041950197901320e+00,1.000410311118405504e+00,1.000227279665932834e+00,9.982776542458177138e-01,1.002026712738387948e+00,9.968147676261870371e-01,9.982552489286902198e-01,9.982077025077593646e-01,1.000962365272864973e+00,9.987223060631807980e-01,9.995722659095930274e-01,9.967203431982094575e-01,1.000323245010482198e+00,9.994437476473572168e-01,9.967515974452935135e-01,1.000626104835950159e+00,9.974898371726237389e-01,1.000023510534188809e+00,1.002170738445751219e+00,9.985529478974245476e-01,9.989324023843496603e-01,9.990017498396707163e-01,9.983430415789804613e-01,9.999317709878374760e-01,1.001139117350237751e+00,9.994232568207999101e-01,9.996899685855923368e-01,1.000024227505972085e+00,9.983320551829687473e-01,9.993638378657095922e-01,9.949678459035833367e-01,9.994296190670197699e-01,9.987804132326861817e-01,9.979572012470395714e-01,9.975935022877726599e-01,1.000682425296120837e+00,1.000057987630410095e+00,9.999475547397402853e-01,1.000027461122319883e+00,9.989124221139774606e-01,9.982008858390321038e-01,1.000280733671572886e+00,1.000156886623784214e+00,9.986194229927704002e-01,1.002089556339414766e+00,9.976843022939029249e-01,1.000597584328686285e+00,9.999147565270046778e-01,9.998443620139555454e-01,9.989895359898530725e-01,9.990028092603386867e-01,9.994506223123117428e-01,9.997176612810223517e-01,9.995180109311483374e-01,9.984350986474053169e-01,9.992517490366268351e-01,9.992260185730932331e-01,9.990829189104059038e-01,9.985272669739023721e-01,9.986286862068202153e-01,9.992817817276621328e-01,9.993111203748036298e-01,9.992133315516550374e-01,9.994246968089077754e-01,9.984228630613241062e-01,1.000011051555506514e+00,9.984937347668551011e-01,9.989037419072940294e-01,1.001764328898703482e+00,9.989307930638675614e-01,9.969044866296199459e-01,1.000131629400284883e+00,9.982104762577754808e-01,9.979513796655321567e-01,9.989358764926489220e-01,9.988587115631044622e-01,9.977386757801085526e-01,9.985086263071337731e-01,9.985156885772343838e-01,9.976044450199531566e-01,9.993696900828280549e-01,9.980249186949612383e-01,9.995328624773029969e-01,9.988035022569389243e-01,9.995133751455349547e-01,9.986061229874892975e-01,9.969894155675244063e-01,9.988598392029000017e-01,9.999786474045920803e-01,9.971739917264620390e-01,1.001476868382187746e+00,9.981221426445747724e-01,9.987106223437881569e-01,9.988278301787347768e-01,1.000773234200743600e+00,9.980326660962076657e-01,9.982535718716121220e-01,9.999707051275791292e-01,9.987408877175767419e-01,9.998107531372562029e-01,1.001048269375838906e+00,9.979711520460452512e-01,9.998062593468980408e-01,1.001425526071433092e+00,9.962022280843271238e-01,9.975532390998271826e-01,9.987883617409706316e-01,9.980966659062020518e-01,9.970488525730180074e-01,9.993470752234634435e-01,9.991452620617840008e-01,9.998915027091773711e-01,9.986568618303566236e-01,9.984317155946076383e-01,1.000183492812836361e+00,9.994065939798633114e-01,9.990961606476205237e-01,9.997844391314100188e-01,1.001099398564314846e+00,9.961572438648467198e-01,9.983652475663352677e-01,9.982245285149132785e-01,9.998635920537379818e-01,9.995896045036444244e-01,9.979206072408504102e-01,9.998575039859614044e-01,1.000253799376668695e+00,9.987185980034600785e-01,9.980181374592522747e-01,9.992112050043897575e-01,9.982315162421271371e-01,1.001844871384623747e+00,9.990688331118759979e-01,9.966909841578239782e-01,9.986067907789754061e-01,9.985800073068733518e-01,9.994340960130574381e-01,9.998740069044216305e-01,9.982588424379101877e-01,9.968816156293521802e-01,9.976778024368376796e-01,9.986463090635593343e-01,9.992503328745817592e-01,9.988984401863023610e-01,9.987920006967770936e-01,9.995596003309362709e-01,9.992252086125810173e-01,9.974550991885521301e-01,9.993798216888601926e-01,1.000685521155501689e+00,9.991502525117142985e-01,9.999389670788423334e-01,9.966849069962733232e-01,9.992268865497726527e-01,9.997551606230740129e-01,9.985888710107642119e-01,9.986111131310163591e-01,9.982609619137383650e-01,9.992844669577597427e-01,9.990251209501963547e-01,9.995835646862853974e-01,9.977385212582160490e-01,9.979049014406007334e-01,9.978996468924246077e-01,9.958206482204918775e-01,9.963813395223642955e-01,9.975971418634796972e-01,9.985858419086109938e-01,9.983625808372339483e-01,9.978971710999893219e-01,9.998200890168256194e-01,9.957538942683586969e-01,9.982613513496750857e-01,1.000595130281781264e+00,9.966397068680459270e-01,9.980580902466016369e-01,9.947964950384905469e-01,9.979062357760583035e-01,9.904390056565882672e-01,9.919374138186459744e-01,9.930307467057102322e-01,9.899715946691645119e-01,9.873275693999593594e-01,9.837207381644994530e-01,9.784444170450463663e-01,9.818367707570747616e-01,9.767161513561781749e-01,9.872528408334886318e-01,9.800090867787368820e-01,9.831060295324035581e-01,1.019954262140711165e+00,9.620644504255474461e-01,9.980669832331805491e-01,1.003257790368271785e+00
1.000336339530845331e+00,9.935010012361833454e-01,1.000314652777312796e+00,9.963422461225939220e-01,1.006866245536940374e+00,1.003943974028238761e+00,9.987450116470141248e-01,9.996885410711822129e-01,9.932452600740699911e-01,9.988346542924736449e-01,1.004151642406110545e+00,9.949916640230032083e-01,9.976653169103569807e-01,9.996903761419506651e-01,9.945171070312025519e-01,9.950713066351370983e-01,1.000848969863171734e+00,9.956984293975933431e-01,9.999076443652635815e-01,9.987327553929897794e-01,9.979582376832069057e-01,1.001134423935284845e+00,1.000813484068636683e+00,9.940929005819909570e-01,1.000614879147243785e+00,9.966898466384591648e-01,9.996962332928310824e-01,9.959415782660728800e-01,1.000109898736164515e+00,1.001636213334853531e+00,9.979151725403205830e-01,9.979918182495560730e-01,9.959213424732422659e-01,1.000315238635647086e+00,9.996688644129798629e-01,9.953327110281370294e-01,9.984565336119488599e-01,9.975813152397323691e-01,1.002146322014751956e+00,1.000162965377264790e+00,9.986368113125093648e-01,1.001267722616463018e+00,9.994059275936224562e-01,9.992359200030435096e-01,9.967520411376787903e-01,9.998259139517533534e-01,9.966936653213516184e-01,9.987853886984761065e-01,1.000712990444722283e+00,9.996578090514737225e-01,9.972499278050515059e-01,1.000102858587075705e+00,9.976450776861244263e-01,9.978221720861039090e-01,9.993495911405332333e-01,9.996546750898861466e-01,9.994223313536604314e-01,9.981963808958765894e-01,9.988548395868962482e-01,1.002234299983764787e+00,9.985795499482753579e-01,9.983379930903153454e-01,9.966624540155729628e-01,9.985803539740044643e-01,9.987685665202122864e-01,9.967101242615603596e-01,9.951420359964940898e-01,9.985064682976281247e-01,1.000655092799199730e+00,9.990305890047769255e-01,9.999983432105596926e-01,9.989150386783793856e-01,9.994459314731922728e-01,9.992277082361333829e-01,9.995064656157904848e-01,9.981634685507712046e-01,9.982276471511097871e-01,9.965393125466097679e-01,9.969519035720881828e-01,9.980384678254236031e-01,1.002394808020446115e+00,9.992798396246936887e-01,9.971206972581774242e-01,1.001095021667899765e+00,1.000196123386470903e+00,9.988173495097548704e-01,9.997176612810223517e-01,9.973899837215013386e-01,9.976093200834954544e-01,1.000823076059710326e+00,9.988273381560538455e-01,9.979925979320245499e-01,9.996407387933105015e-01,1.000201560990841232e+00,1.000695453826305092e+00,9.999679333721819274e-01,9.994460992021242385e-01,9.989703440144803714e-01,9.969859388160932090e-01,1.000029135919062506e+00,9.988851265203494423e-01,9.980083994436782513e-01,9.991236265645389025e-01,9.972219798260308909e-01,1.001087302657436506e+00,9.977794692473659355e-01,9.984511165902411056e-01,9.994993110749714749e-01,9.996433748245634465e-01,9.992388210845599694e-01,1.000602698352849540e+00,9.993464331150898605e-01,9.991121420182932367e-01,9.983460664634075110e-01,9.998490807240574263e-01,1.000484117673265061e+00,9.980627239197320533e-01,9.990375996414507798e-01,9.991333251558908168e-01,9.970289471192872455e-01,9.986409016024858643e-01,9.988962919459689616e-01,9.988988161511032082e-01,9.982598169024741175e-01,9.997588157958205990e-01,1.001052471129628252e+00,9.997809309807407230e-01,9.996437109715937686e-01,1.000926181625066302e+00,9.975121847259066366e-01,9.988749076356340240e-01,9.979200640581210591e-01,9.975099969173457648e-01,9.983228812508565531e-01,9.964633154703006479e-01,9.984021733924862696e-01,9.984740202491635408e-01,9.968546878882595941e-01,9.985175172774640728e-01,9.999836664826423638e-01,1.001178979545847891e+00,9.991721800345467752e-01,9.966968011126564608e-01,1.001149147606704259e+00,9.992428844151335365e-01,9.976651383014966123e-01,1.000141040357070743e+00,9.975135366278520266e-01,9.993235738319705685e-01,1.000247795920496507e+00,9.994301882343694654e-01,9.980708943587610626e-01,9.994618098752954261e-01,9.984543165273718213e-01,9.986231923198602978e-01,1.001093619593058426e+00,9.977875296520931636e-01,1.000472846984931330e+00,9.970145781204033941e-01,9.981206234368916741e-01,9.979797569617169239e-01,9.973114350682676932e-01,9.968290199348035507e-01,9.980383011413520578e-01,9.997621337635609340e-01,9.981435765090227452e-01,9.982318291674949773e-01,9.988767560902704901e-01,9.993680045860782180e-01,9.978776961830455594e-01,9.956169246990284050e-01,9.981677004100174555e-01,9.996054341491314998e-01,9.993753509093870058e-01,9.974132482840722957e-01,9.999790221094626563e-01,9.994069797366095242e-01,9.997761870526085115e-01,9.997008402979479236e-01,9.998803538471330299e-01,9.985976275887716858e-01,9.986284653413712853e-01,9.981473654272318141e-01,9.965963077511716950e-01,9.994880070338720834e-01,9.965943629994018504e-01,9.970800836457242022e-01,9.983258478523853174e-01,9.978808729790198395e-01,9.995181510768463840e-01,9.971189687042339989e-01,9.959510945319863806e-01,1.000413784243633808e+00,9.969510392392608722e-01,9.997779011660188342e-01,1.000041060368216828e+00,1.000847977917308507e+00,9.998987388081883587e-01,9.972451976183419609e-01,9.973083208591401183e-01,9.976919915267634664e-01,9.977782643183507050e-01,9.996195894874382315e-01,9.957206581684416857e-01,1.001333687940488604e+00,1.000156372165754481e+00,9.960286039747038300e-01,9.976841669469815876e-01,9.962777604003754117e-01,9.980163287465285693e-01,9.947531525631054805e-01,9.972234865725989605e-01,9.970156896317216022e-01,1.000142448519105276e+00,9.941958850273562298e-01,9.909489823968398170e-01,9.939164375549569552e-01,9.881805584869646220e-01,9.766110399322400770e-01,9.901295029409536985e-01,9.795289652863042873e-01,9.827820209170503585e-01,9.685208022327512767e-01,9.734157095980310315e-01,9.917044078740863133e-01,9.839965083290900250e-01,9.742404504769508478e-01,9.922096317280452160e-01
9.980836468591363086e-01,1.007294204396764314e+00,1.013208721907197463e+00,1.013503156136863481e+00,1.004291403460587651e+00,9.980357060431529481e-01,9.999638852272521028e-01,1.005578663092116853e+00,1.000740699795478417e+00,9.995928310178522347e-01,1.001449834036644893e+00,1.001005717062766198e+00,1.001629873100316814e+00,1.004344941392626867e+00,1.000472663186965372e+00,1.004337515858834795e+00,1.003155604963109848e+00,1.000068476521890792e+00,1.000390277037112030e+00,1.000858270211111289e+00,1.001981061274942686e+00,1.003329057155882609e+00,1.004827685827891059e+00,1.002768271682978440e+00,9.999883985066557734e-01,1.000814190947798332e+00,1.002316221142162789e+00,1.001546840781236014e+00,9.997566527984927953e-01,1.000986288874319285e+00,1.002818686725486685e+00,1.003454799554383436e+00,1.003156805891275205e+00,1.002837147720824662e+00,1.002602274953493744e+00,1.003918471180772709e+00,1.002517037494360386e+00,1.001789624885204955e+00,1.001817396504751212e+00,1.001111127572260395e+00,1.001337098951844862e+00,9.981494164104507405e-01,1.000184146433243715e+00,1.000833830038172279e+00,1.000502940084324832e+00,1.000609301168863485e+00,1.002345835218929171e+00,1.004024828666655322e+00,1.002802218259489342e+00,1.000276442469333560e+00,1.000635315547459880e+00,9.995738715678293973e-01,1.002802225993606244e+00,1.002859305356992747e+00,1.002713175487263353e+00,1.001744035890575590e+00,1.001475614339637055e+00,1.001854049243547928e+00,1.002716356758259320e+00,1.001455000889081459e+00,1.001683027678212712e+00,1.002698944165289818e+00,1.001552000291517697e+00,1.001202011611633136e+00,9.991638414643416732e-01,1.003524139335913556e+00,1.002846834849606905e+00,1.001069714533707744e+00,1.005868890501828039e+00,1.001703560458042430e+00,1.000714076248763629e+00,9.999475547397402853e-01,9.998820787100379803e-01,1.000546177474239684e+00,1.000925574068788793e+00,1.001155869921504404e+00,1.001862446157598008e+00,1.000893677080572530e+00,1.000276267127417018e+00,1.002124993189124291e+00,9.999269784735521638e-01,1.001237500073485887e+00,1.001426681538740926e+00,1.001450163830461815e+00,9.989282271274553260e-01,9.982084333534501086e-01,1.002222920336738543e+00,1.001505728654445093e+00,1.000407791883412445e+00,1.001765872273560509e+00,1.003057780359082996e+00,1.001568850741115346e+00,1.001824856592918866e+00,1.001795407438649033e+00,1.001269117866333991e+00,1.002774316179161795e+00,1.000086210240914486e+00,1.001204245253748626e+00,1.000596671534878634e+00,1.000607835552854041e+00,1.001144524370066957e+00,9.999219745129745984e-01,1.001799074982047788e+00,1.001122907015435937e+00,1.002051243799649383e+00,1.001573829786016390e+00,1.001940401410992720e+00,1.002801564748442065e+00,1.000868554862756943e+00,1.001433089685689781e+00,1.001869811369880292e+00,1.003064200825394936e+00,1.002392635944116650e+00,1.001188948663315648e+00,1.002139502676597793e+00,1.002070122811446584e+00,1.002168354769533920e+00,1.001252521048756172e+00,1.001178356052547347e+00,1.000727152603347214e+00,9.992397921426366958e-01,1.001174588387776287e+00,1.000344691897300242e+00,1.000578697786838722e+00,1.002049552577643388e+00,1.001108464667559206e+00,1.002503645934391896e+00,1.002015457462463122e+00,1.002455655868295326e+00,1.002023023268515889e+00,1.001437917662224120e+00,9.999902350425263764e-01,1.002003725235649290e+00,1.002062138228518862e+00,1.002086741841623052e+00,1.002634019339361915e+00,1.001236457201818864e+00,1.000837006133685536e+00,1.002559462818025215e+00,9.998856653784965465e-01,1.000610717936491811e+00,1.001303653488902601e+00,1.002134040333796827e+00,1.000659454024301898e+00,1.001117233599444489e+00,1.002371750777383053e+00,1.001996263515463337e+00,1.003354717714233457e+00,1.002821880595037962e+00,1.001538943085189537e+00,1.003576060046370788e+00,1.001754030824109964e+00,1.003072396984819870e+00,1.001840518469542252e+00,1.000408963690417652e+00,1.001113543836656739e+00,1.002638329302090403e+00,1.000071373129800989e+00,1.002027939253543831e+00,9.998777002714156481e-01,1.000030455925200235e+00,1.000452059590291265e+00,1.003225652135286028e+00,1.001042581211589066e+00,1.001975323963472109e+00,1.002135984464727292e+00,1.002835350861591035e+00,1.001966260648632367e+00,1.001271039103835081e+00,1.000388990504611719e+00,9.998629916663192008e-01,1.001234732336667932e+00,9.997140302548751523e-01,1.000840967258179504e+00,1.001998853598671246e+00,1.001933667910120729e+00,1.001018204603179917e+00,1.002454440311337569e+00,1.001427635540172556e+00,9.999261757780182336e-01,1.001340389100234596e+00,1.002829116168464152e+00,1.000185658475309491e+00,1.000637694098140962e+00,1.002069416596077733e+00,1.000476056785029932e+00,1.004440248741746755e+00,1.001754800672997936e+00,1.004162269407742114e+00,1.001505777884855286e+00,1.005522097844534946e+00,1.002960347276613318e+00,9.997146830666641115e-01,1.001290236502928588e+00,1.001887840088839576e+00,1.000097913185747700e+00,1.002319516155662393e+00,1.001633245029218688e+00,1.000367082468949453e+00,9.999656673578972699e-01,1.002655790571943539e+00,9.995226319133128090e-01,1.002861348637964944e+00,1.001059916453644227e+00,9.985528899179449969e-01,9.997594274373007295e-01,1.004587468912093717e+00,1.001060884415349239e+00,1.003396040931230138e+00,1.002192478753836768e+00,1.002164715853955057e+00,1.002958579881656709e+00,1.002680278748989906e+00,9.986040045127690945e-01,9.978022655467366775e-01,9.946752731086020427e-01,9.980702892178902053e-01,9.989997522322042744e-01,9.962957205118445625e-01,9.979678388407846601e-01,1.002567250809242250e+00,9.912446443303084553e-01,9.981177386902057025e-01,9.953342904019687465e-01,1.006770996816286123e+00,9.970902742416527520e-01,1.000714375761650565e+00,9.917847025495749591e-01
1.003011412078500086e+00,9.994867309096430175e-01,1.000555663415254593e+00,9.978003626597541365e-01,1.000274649821477624e+00,1.012344792569532359e+00,1.004839379548204237e+00,1.004443217883262074e+00,1.004919573268475919e+00,1.001172365862390778e+00,9.985638114601704807e-01,1.001491701146787427e+00,9.995561052471070296e-01,9.993229104642656901e-01,1.009649081345334487e+00,9.985386623446498300e-01,1.003270936718106743e+00,1.003149920006972229e+00,9.957248278759097682e-01,9.986290717433252695e-01,1.002924686561893042e+00,1.001134423935284845e+00,9.991713106216690843e-01,1.005776314929049509e+00,9.966471684235195250e-01,9.978911119712763345e-01,1.001063183475091156e+00,1.002462733349073210e+00,9.991914592982180654e-01,9.987970696388357439e-01,9.981820304551595191e-01,1.001917313797935138e+00,9.984617940733515606e-01,1.002900195447954168e+00,1.001510047624579069e+00,1.000502631120046670e+00,1.001662194571747433e+00,1.000699702962636550e+00,1.000083061997474987e+00,9.976147794782145306e-01,1.004066737543781729e+00,1.001850583589549260e+00,1.000933542352879124e+00,1.002888285797623347e+00,9.997696816436271172e-01,9.998538920666502072e-01,1.000406365156034871e+00,1.000431286070678993e+00,1.001065717218643902e+00,9.995771177361005844e-01,1.001461670035764362e+00,1.001689819644814738e+00,1.000355211745668438e+00,1.002076331273434873e+00,1.000705454598129762e+00,1.002031323000670326e+00,1.001291345353716000e+00,1.001400177988727380e+00,1.000187334948845486e+00,1.002011643099569360e+00,1.002821918588281402e+00,1.002146557029126361e+00,1.001015342773426076e+00,1.000508929707432326e+00,9.994983048786050261e-01,1.003799144428600520e+00,1.003641774413816856e+00,1.002290307979460060e+00,1.001534163342084671e+00,9.989705222305461652e-01,1.000057987630410095e+00,9.990920414317555620e-01,1.002440809166199598e+00,9.997436309814793365e-01,9.992226439251908898e-01,1.000450114881237029e+00,1.000548326516790709e+00,9.995901412009786657e-01,1.001869763707657457e+00,1.001471149130932270e+00,1.000222045049811159e+00,1.002163420556022588e+00,1.003320277035615105e+00,9.989641686925271324e-01,1.002781637326424002e+00,1.001496580597495578e+00,1.000910641783744337e+00,1.001762962712754002e+00,9.983662837670795875e-01,1.002080137678177163e+00,9.992924653092665199e-01,1.001045496671492341e+00,1.001161056085194900e+00,1.000264475982201917e+00,1.000080813783416733e+00,1.000983008004493691e+00,1.000939691625968297e+00,1.001412490284527834e+00,9.989939483382749286e-01,1.000155726463954231e+00,1.001678240397559261e+00,1.001326433279430717e+00,1.000304993398244191e+00,1.001968683264466087e+00,1.000381560035459305e+00,1.001350632107272265e+00,1.000359050654789916e+00,1.001236434101120176e+00,1.001075627545268354e+00,1.000776536875902956e+00,1.001991315357814827e+00,1.000672960561020286e+00,1.001427784789462594e+00,1.000359038952783441e+00,1.003080528750122102e+00,1.001268210101130096e+00,1.001236071781805848e+00,1.002459022953548606e+00,9.987351775476922544e-01,1.000509611104284824e+00,1.002560912410746186e+00,1.002122359707567911e+00,1.001259803129070480e+00,1.002087810743330198e+00,1.001513815749636382e+00,1.002246999938821936e+00,1.000438138038518554e+00,1.002603650592198692e+00,1.000792352628783854e+00,1.002138685795249451e+00,1.001204916750715990e+00,1.000244123936840257e+00,1.000987751876728504e+00,1.001083275145361107e+00,1.001146238476384509e+00,1.000929525832981337e+00,1.001530333473378054e+00,1.001307822083883581e+00,1.001303712747171337e+00,1.000062067365959040e+00,9.999052897317739497e-01,1.002124955186911359e+00,1.002544767037552020e+00,1.000933682430447114e+00,1.001605345366192168e+00,1.000633624178404180e+00,1.001000301609378917e+00,1.002670967419841075e+00,1.001375653218127493e+00,9.997978506964368961e-01,1.000255432860455151e+00,1.000198053386877062e+00,1.000251009243497524e+00,1.001325657355528032e+00,1.002115367444506022e+00,1.003145816683676195e+00,1.000721964008264298e+00,1.001657194857565880e+00,9.999340052862883965e-01,1.001230851396853749e+00,1.000781702080139723e+00,1.001206625222205826e+00,1.002118542715971783e+00,1.001742208077260665e+00,9.997621337635609340e-01,9.993080288294365898e-01,1.000847466493685944e+00,9.993811649977581979e-01,1.000890432200283842e+00,1.000410272659879363e+00,9.999487707969715311e-01,1.000478773763197715e+00,1.002385494456168757e+00,1.001519088255381940e+00,1.001866576522288721e+00,1.001889244141924040e+00,1.002271379499401371e+00,1.001981807383326650e+00,1.000632400889148066e+00,1.001392477566346306e+00,1.001828507674308533e+00,1.002477106322618328e+00,1.001678826638435993e+00,9.998007205943308939e-01,1.001176779644660897e+00,1.001159625501995887e+00,1.004786028310016066e+00,1.001254223618893935e+00,1.001502807210097545e+00,1.000266737796745797e+00,1.002930478576965490e+00,9.992167691061875079e-01,1.001623767049927505e+00,1.000062161805663985e+00,9.991671293725707947e-01,1.000836999813649042e+00,1.000963392681101016e+00,9.992813721871437460e-01,1.001124821510358975e+00,9.986678934864111623e-01,1.001802143602390283e+00,1.001525424337158299e+00,1.002828269462959554e+00,1.003406469457968964e+00,1.002143287364773538e+00,1.003548445299813574e+00,1.001796534693379703e+00,9.997800605480373637e-01,1.002149336431475968e+00,1.002443047754275396e+00,1.002381428230880500e+00,1.002184797451069587e+00,1.002008208853720772e+00,9.982963157115017916e-01,9.958603683439932741e-01,1.007198053369442459e+00,1.000075596917237242e+00,9.967698420709717455e-01,9.951377981248090698e-01,9.955822583495317346e-01,9.910481080477732130e-01,1.006892514037842412e+00,9.879924709547607264e-01,1.020252255947497799e+00,9.973543787274112837e-01,9.709027424165272979e-01,9.598688910366852678e-01,1.008356940509914867e+00
1.009487903509663775e+00,1.007554453513001658e+00,9.834439081213890432e-01,1.005090945345554987e+00,9.924471299093654553e-01,1.005605674399044025e+00,9.950071326676176442e-01,1.002456188767765877e+00,9.998120612459233669e-01,9.945383195153284506e-01,9.948181225843206743e-01,9.965711122960722035e-01,9.935177812039375222e-01,1.004038719994556184e+00,1.001262685942321484e+00,1.002304928029120523e+00,9.978503442332521400e-01,1.005110838588387567e+00,1.003661454035196465e+00,1.001117479335272620e+00,1.001136764965566028e+00,9.989397907146870814e-01,9.977572168201135350e-01,1.002724676853325114e+00,9.975242413203427860e-01,1.002976468546869393e+00,1.001139125151883302e+00,1.001730019294803542e+00,9.985556166104089248e-01,1.000404777514894095e+00,1.000450322731290864e+00,1.000674240207614973e+00,1.001452452286138550e+00,9.994640943193997540e-01,1.002071764536592191e+00,9.987177777549827162e-01,1.005661638245401113e+00,1.000366671264073970e+00,1.000172768954747937e+00,1.002237070178817469e+00,1.003626473254759732e+00,1.001413437859734579e+00,9.985124170740573568e-01,9.985796355243300448e-01,9.996850749004696501e-01,9.986788112409848983e-01,9.997414039916140416e-01,1.001446256116870881e+00,9.995462788079041427e-01,9.972101724851580862e-01,1.001701579403336595e+00,9.999706118322641002e-01,9.991974845746010025e-01,9.981092625834084853e-01,9.997407055994552705e-01,9.992890369497654524e-01,9.996592486212730888e-01,9.984366656778403959e-01,1.004212014817590148e+00,9.992562641576535620e-01,1.001768444496467847e+00,1.000256811563304149e+00,9.998525848175612296e-01,1.000207589749084303e+00,9.985253204007479289e-01,9.987879405174169278e-01,9.997282257900136360e-01,1.002168248634884851e+00,1.000170088361745924e+00,9.983698544882393389e-01,1.000863187298389523e+00,1.002927101088239015e+00,9.989516312714338264e-01,1.000431527975273793e+00,9.971507455838133360e-01,1.001776934356939597e+00,1.001163446348658059e+00,9.994792019771834291e-01,1.002391771208080984e+00,9.996730779709039894e-01,1.002502104957267548e+00,1.000364489332808304e+00,1.002412388783689101e+00,1.000663777613360006e+00,9.991022521041830196e-01,9.987929928635026489e-01,9.980952077973205272e-01,9.989100031569634330e-01,1.000476606763738285e+00,9.977477646002468337e-01,9.995804011660172073e-01,1.000543949021436951e+00,1.001353772361630812e+00,1.000201560990841232e+00,9.994456857390989768e-01,1.001002911428656716e+00,1.000338375195589435e+00,1.000977068856534924e+00,9.997676767780147022e-01,9.988717366514791030e-01,1.000593017808324880e+00,9.993777467409729054e-01,1.000443977731621192e+00,1.000553302602823713e+00,9.994520453626111189e-01,1.000114460348073830e+00,9.990183402310529592e-01,9.997744988810940425e-01,9.989013643788969832e-01,9.996707637225776821e-01,9.993355853358186769e-01,1.001022046731002035e+00,1.000743617607071645e+00,1.001118318049653455e+00,9.995827525900411459e-01,9.999138686348177929e-01,9.975965824258681280e-01,1.001900790728943225e+00,1.000635427495912833e+00,1.000890308727643951e+00,1.000891278177598265e+00,9.998622896372951763e-01,1.000454505245112591e+00,1.000026583290561488e+00,1.000867236819283246e+00,9.995593101181360352e-01,1.000175255215407510e+00,9.986760384033190885e-01,9.996834838024428738e-01,1.000808566737813488e+00,1.001437917662224120e+00,1.001025320534729035e+00,1.000049930314647728e+00,1.000574266342119323e+00,1.001694865439440418e+00,9.983629896337189447e-01,9.998062593468980408e-01,1.000052312883355388e+00,1.001127122893457511e+00,1.000865676419954386e+00,9.990822901596030370e-01,1.000071700941889574e+00,1.001410378998609074e+00,1.000189348185195559e+00,1.001332002776813557e+00,1.001180450524150389e+00,1.000844072290777431e+00,9.979823939725782633e-01,1.000593908690067702e+00,1.000619489801241491e+00,1.000569811765630535e+00,9.969876189277760981e-01,9.987909904123237759e-01,1.001286052654450032e+00,9.993771846763178646e-01,1.000296649849129249e+00,1.000442494069581301e+00,1.000673583912496500e+00,1.000517890719465397e+00,9.999584854132328449e-01,1.000477142828137156e+00,9.990448966550988796e-01,1.000703902902403630e+00,9.996844820017558586e-01,9.985210925299660145e-01,1.000347718401234598e+00,9.988805072243902572e-01,9.983303131071588066e-01,9.992622804462027997e-01,1.001495662578522294e+00,9.999916603622976963e-01,9.998956057208064907e-01,1.001212656514137489e+00,1.000075346777467011e+00,1.000146974529314114e+00,9.990239110932318534e-01,9.970572768061942703e-01,9.986958832171548561e-01,9.987920006967770936e-01,1.000728059568510186e+00,9.983187026893008964e-01,9.985815306952585679e-01,1.000612277950488460e+00,9.995376717788476695e-01,1.000187641401198757e+00,1.001403757186626553e+00,9.985619960811650264e-01,1.000853761975610823e+00,1.003579720545400900e+00,9.982016709832299828e-01,9.997629439166028087e-01,1.001500086288149349e+00,9.981013726582724788e-01,1.000444229489257486e+00,9.976401998889505851e-01,9.983923286598211932e-01,9.999823671888651289e-01,1.000868886355544385e+00,1.001064202387046409e+00,1.000089264869467254e+00,9.975339087546238881e-01,1.001008574679391749e+00,9.994541936124112791e-01,1.003202421370636310e+00,1.000101688816576795e+00,9.979912191014613798e-01,9.988195381934179551e-01,1.001449012859989107e+00,9.984494392063988366e-01,9.984757052473325345e-01,1.000561044264707045e+00,9.976786527082385225e-01,9.988398793474521087e-01,9.997321967840822055e-01,9.965261616706481140e-01,1.003532849390659898e+00,1.001149868899030349e+00,1.001807787250052817e+00,1.001409877721251673e+00,9.984222351248327465e-01,9.807344569706440973e-01,9.981105463448386450e-01,9.996754721879664851e-01,9.990258408531582646e-01,9.943948701851934580e-01,1.025569215101476805e+00,9.670546707568180578e-01,1.024929178470254998e+00
9.907623956760814865e-01,1.000267478258355158e+00,1.004050317665410308e+00,9.975760370386524967e-01,9.928591046415818910e-01,1.007359691457116346e+00,1.002807923581140903e+00,9.977015119556861267e-01,1.004057266043889118e+00,9.991505612613813536e-01,1.002125286129011306e+00,1.001734693188798042e+00,1.000227030140792506e+00,9.950358108912744637e-01,1.007157471116903125e+00,1.002842965984044765e+00,1.000618306353177944e+00,1.000908870199640255e+00,9.969582224817448157e-01,1.000236168313124674e+00,1.000491126611336767e+00,9.987966624611698263e-01,9.967536663802999408e-01,9.989755215031497215e-01,1.002870209453360806e+00,9.988521242375301146e-01,9.974939246658566239e-01,9.970406493474774923e-01,9.985202920166417195e-01,9.983523844816282189e-01,9.992494621145153744e-01,9.974029939172992520e-01,9.994586801442805202e-01,9.982031397768110770e-01,9.965482149017949043e-01,9.977638044046898136e-01,1.000288339874690902e+00,9.986409615533404782e-01,1.000083061997474987e+00,9.997185143483606762e-01,1.000339166563394722e+00,1.003453451265536867e+00,9.981953649542116835e-01,9.985225673087896325e-01,9.975417040738147056e-01,9.994901765729918841e-01,1.000517192016771695e+00,9.977155554065442189e-01,1.000848654588538222e+00,1.001271635358934375e+00,1.001541639824955032e+00,9.997325676736033007e-01,9.980397574035336783e-01,9.984485513529501866e-01,9.989845509788725098e-01,1.000412068380136077e+00,9.993960072128145189e-01,9.984900622960546368e-01,9.989364209355869884e-01,9.978924907419577384e-01,1.001198999041433391e+00,9.997334974343071723e-01,9.995246274453942759e-01,9.992131678865354694e-01,9.984036973410158611e-01,9.986657160317783388e-01,1.003580625216569988e+00,9.999711804325308595e-01,1.000321652248450155e+00,9.988203552949694863e-01,1.000594787409063047e+00,9.979415235348104707e-01,9.991842431310848927e-01,9.976512776253541048e-01,1.000812045392549088e+00,9.984175403652674197e-01,9.989266469600497356e-01,9.997842848426202744e-01,9.974739110725117097e-01,1.001062496594562257e+00,9.991758999158018018e-01,9.986184678514530288e-01,1.000856008923244556e+00,9.985329246379874846e-01,1.000693337605692568e+00,1.000473601454903605e+00,9.993836267402602669e-01,1.001646038140795447e+00,1.000889496045693106e+00,9.997006996146506896e-01,9.989602316284003081e-01,9.993445959452174066e-01,9.998976938285585314e-01,1.000537107611432219e+00,9.997120297576839176e-01,9.991518929814997563e-01,1.000299580587177939e+00,9.993111086103009244e-01,1.000025586257927923e+00,9.992153395590429588e-01,1.000593017808324880e+00,9.998166401054904284e-01,9.998880403981128540e-01,1.001347296632525641e+00,9.995553247707053002e-01,1.000681039071039669e+00,9.974713666652025301e-01,9.992929202203796324e-01,9.996261187676874771e-01,9.979602708760276775e-01,9.997695281498703013e-01,9.989449840196108488e-01,9.990770565217603760e-01,9.993878680149266280e-01,1.000008877604467106e+00,9.991297762069528687e-01,9.985109368946012420e-01,9.989655696769855764e-01,9.999115227537336281e-01,9.987148937370204926e-01,9.975701579094888860e-01,1.000445533526397979e+00,9.988988161511032082e-01,9.990695848303474680e-01,1.000349973675000781e+00,9.975622072652652328e-01,9.982411887310896903e-01,1.000326773960964255e+00,1.000180562931492378e+00,1.000172422840778674e+00,9.989525746061367339e-01,9.990137392951653483e-01,1.000596992892528236e+00,9.983033039891934246e-01,9.993436070263438387e-01,9.996952374318094359e-01,9.995711583296508218e-01,1.001759020702823522e+00,9.992631188820336741e-01,1.001159679732391616e+00,1.001041812950486110e+00,9.996219404882181747e-01,9.988091098748260732e-01,9.994058384533517359e-01,9.976223533495313101e-01,1.000653153690752362e+00,9.999652823736440155e-01,1.000482966477785007e+00,9.994212918979780147e-01,1.000169544577181879e+00,1.000687703855071220e+00,1.000040486051461119e+00,9.981399009335569783e-01,1.001860320820081363e+00,1.001143114142758028e+00,9.999778619515575784e-01,9.998635920537379818e-01,1.000653510219740028e+00,9.992091819899306948e-01,1.001251047682307993e+00,9.989746505182582892e-01,9.998198559527410323e-01,9.996377975356565138e-01,9.993346685689200593e-01,9.985417765505258947e-01,9.992248536636927359e-01,1.001161342972828772e+00,9.986665857121506118e-01,9.991565563063274924e-01,9.988353931700835187e-01,9.999916603622976963e-01,1.000392378497658274e+00,9.971077237170276053e-01,9.993534760385095472e-01,9.986919266891046698e-01,1.000467683559627119e+00,1.001174851465207682e+00,9.969854021443530501e-01,9.990419315870990857e-01,1.000063641570674067e+00,9.987835775217521750e-01,9.989570078641606399e-01,1.000067153065537395e+00,9.995137582501673057e-01,9.994638817108607576e-01,9.983765242972059140e-01,9.996240333265641320e-01,9.997775213092870983e-01,9.968424163113681624e-01,9.963947375214036173e-01,1.002014249542976243e+00,9.995353715036705555e-01,9.969182783587853258e-01,9.994071886337897448e-01,1.000999444752915135e+00,1.000353750864636515e+00,9.993475859880065482e-01,1.002867978271308136e+00,1.001549155373548494e+00,9.978645096612055454e-01,1.002371241582092454e+00,1.001428515026327126e+00,1.002034369262830626e+00,9.998356279296487514e-01,1.003093686688933950e+00,9.998676850905153790e-01,1.001126710480888304e+00,9.986544880585814798e-01,1.001103713302649911e+00,9.985592282474786696e-01,1.003031565361656829e+00,9.963131543013199476e-01,9.995119492427211316e-01,9.966040273045321252e-01,1.002018956615550627e+00,9.952861404383991362e-01,9.917678935913707416e-01,1.001972965780514313e+00,9.988045523504216483e-01,9.996718249059652894e-01,1.005112177698403775e+00,1.006732841897969521e+00,1.021678457843837151e+00,9.960264561115668158e-01,9.879377606385363331e-01,1.018040299701753248e+00,1.003361768290120581e+00,9.866855524079319872e-01
1.007235210837954753e+00,9.916792574225217205e-01,9.845284559921270162e-01,9.963422461225939220e-01,9.980087887942872271e-01,9.874192870074520734e-01,9.992325610791092938e-01,9.994756450945219139e-01,1.000541705820573668e+00,9.994032868365075872e-01,9.990550493455279124e-01,9.978468205166279859e-01,1.001385900411703833e+00,9.955870094078018706e-01,9.966440913725463924e-01,1.004038605883876834e+00,9.972736854582675559e-01,1.004606602381737934e+00,9.986206239070007928e-01,9.952075113043978849e-01,9.900615839660957818e-01,1.000084816742825122e+00,1.000585404423224523e+00,1.000196176733439524e+00,9.967724645516371496e-01,1.001815245391812770e+00,1.001670716889428991e+00,9.991288844021460891e-01,1.001310934924248386e+00,9.988654827399446878e-01,9.977150291041912977e-01,9.973048565285896894e-01,1.002031289359581079e+00,9.997793329550469510e-01,9.988887020351836510e-01,1.000225671115122950e+00,9.996777377871102210e-01,9.987923395981417318e-01,9.985879460429265553e-01,9.992148031822694065e-01,9.995760417957564314e-01,9.952642545936730700e-01,1.000270615193201706e+00,9.988079083864912500e-01,9.955111422380364949e-01,9.966643869684158608e-01,1.001292980041929459e+00,9.990597049271765506e-01,1.001065717218643902e+00,9.987971016874945818e-01,1.001568296421351922e+00,9.970347338754471656e-01,1.000223651839865280e+00,9.979526677666968881e-01,1.000131820058377530e+00,1.001038876620342855e+00,1.000238379719881943e+00,9.976624147137348464e-01,9.978758634026070329e-01,1.000397380689154181e+00,9.977823263112272079e-01,1.000954563735300118e+00,9.969904113877400276e-01,9.963504382822283567e-01,9.987685665202122864e-01,9.962212263190058925e-01,9.963038707441856934e-01,9.963704297675617383e-01,9.996244583696103359e-01,1.000832592231697404e+00,9.993124323822809574e-01,1.001334076307853538e+00,9.993587020258232201e-01,9.990270716129432405e-01,9.970655990766333909e-01,9.986151517765422536e-01,9.990944069141953765e-01,1.001281964363855970e+00,1.002474193444990114e+00,1.000572113550918019e+00,9.983711728896407234e-01,1.000893586751400832e+00,1.000415034629451805e+00,9.967825811225028421e-01,9.971382559382571120e-01,9.998646852985989542e-01,9.989780133693347830e-01,9.993309316160144951e-01,9.993067537981991100e-01,9.969845486176063254e-01,1.001219420658290282e+00,9.985377584212152824e-01,1.001546488638066945e+00,1.000788767576875626e+00,9.991178777162252889e-01,9.965445444161497024e-01,9.995624830273588390e-01,9.983077461892736482e-01,1.001849374723028818e+00,9.971356377501041646e-01,9.990808223970966129e-01,1.000764649772848180e+00,9.987761657310961771e-01,9.990170967627481913e-01,9.987979424446808974e-01,1.000389165183451334e+00,1.000101221727148326e+00,1.001511621907242633e+00,9.998849596208269075e-01,9.997917076612226062e-01,9.988322116715186993e-01,9.994686132745833618e-01,9.999366511868156282e-01,1.000111831804965323e+00,9.984819296361070462e-01,9.980605592598642550e-01,9.992101491353971854e-01,9.994337644460095094e-01,1.000074401320723894e+00,1.001561061683086340e+00,9.986227534042995124e-01,1.000026326981105385e+00,9.968855714412087066e-01,9.980941825535909473e-01,9.979299211071073206e-01,1.000231232573307594e+00,9.999874817703280350e-01,9.971201727053088382e-01,9.996070100902815225e-01,9.990929059245987620e-01,9.989914080913880889e-01,9.991699786147431039e-01,9.994833297875573841e-01,9.985773856524775560e-01,9.967572227719376787e-01,9.975597225789879507e-01,1.000903397427385322e+00,9.990910636517007504e-01,1.000381521288888020e+00,9.991408569869886236e-01,9.984748380944293844e-01,9.989766320112113407e-01,9.998261474269818372e-01,9.995821281430166128e-01,9.989500173550849293e-01,9.987197319682927787e-01,9.979343012318246942e-01,1.000150859191937247e+00,9.987958962755302261e-01,1.002477959204966407e+00,9.994694855975163605e-01,9.981496780264691449e-01,9.983174707914025392e-01,9.978998507122796013e-01,9.985835085116256948e-01,9.997586952719770270e-01,1.000881661116083121e+00,1.000352404828392272e+00,9.987863684003887021e-01,9.978782680114400838e-01,1.000680182329472201e+00,9.998606432841958824e-01,9.985716921689093972e-01,9.999725636523265626e-01,9.993691373729225447e-01,9.999526363639513749e-01,9.994664099854571049e-01,9.998015057539978434e-01,9.974438252403461380e-01,9.996653972255163945e-01,1.001042454712788743e+00,9.987940660851785113e-01,9.994751188222390503e-01,9.970566145963721816e-01,9.989123884830758415e-01,9.997346913843803140e-01,9.968558736978729851e-01,9.994160857741239967e-01,9.983148599061623107e-01,9.998803538471330299e-01,9.989927711963553225e-01,9.981121842341308392e-01,1.002058043949706434e+00,9.983180818161527803e-01,9.983541168523424325e-01,9.975708897379246265e-01,9.979692311069886523e-01,9.981756747361540949e-01,9.966144624087129866e-01,9.990018843734673748e-01,9.973022145110318482e-01,1.000278777097797667e+00,9.991231359169204795e-01,9.979062084482442918e-01,1.000749583564686240e+00,1.001746644894143223e+00,1.000328611480242547e+00,9.986934039766249827e-01,1.001943179675081508e+00,1.001232541851490687e+00,9.978816908533307828e-01,1.002720639170743500e+00,1.002067448437836017e+00,9.967068905905491771e-01,9.970744909692509372e-01,9.993985685932519347e-01,1.003247820487111142e+00,1.001177322948741066e+00,1.003235175834487736e+00,1.008039088764068447e+00,1.003031565361656829e+00,9.955393718707328254e-01,1.007816812948546525e+00,9.972706863739444483e-01,9.976912999922941117e-01,1.003777196322578780e+00,9.966379265754994332e-01,1.002716269167591934e+00,9.972606558343741767e-01,1.005010981243531276e+00,9.902444469248800063e-01,9.971525135056018563e-01,1.002985655870707982e+00,9.971800656275634500e-01,1.008923366665172017e+00,9.731941514512257863e-01,1.026810102113711709e+00,9.692634560906514540e-01
1.010755043137500309e+00,9.950624959336076270e-01,9.999531368204002124e-01,9.928651989955197266e-01,1.001613567701181040e+00,1.003574707279170752e+00,9.960634897704905288e-01,9.979144079323464256e-01,1.003261290144270568e+00,1.000666914712138533e+00,1.000344548794591004e+00,9.943841839179766717e-01,1.001263914067397565e+00,9.969343835593134084e-01,9.971302592219963845e-01,9.957886905750362727e-01,9.975620148457597924e-01,1.000180529012257402e+00,1.000604780446822550e+00,1.000702744736614580e+00,9.991005209253046582e-01,9.973176705081583382e-01,1.000402940706894839e+00,9.952699609826274330e-01,1.001700778924263124e+00,9.971703527715860549e-01,9.991646415552855043e-01,9.953920427253706293e-01,1.001416908705549780e+00,9.982839713805192750e-01,9.991493903964507872e-01,9.994965915431013315e-01,9.990406311467942002e-01,9.979824727318580280e-01,9.962985629409001342e-01,1.001610471139741776e+00,9.989144851776343703e-01,9.968849762336469134e-01,9.990962854674729776e-01,9.989481325649268717e-01,9.998695513217712438e-01,9.993734244539321798e-01,1.000962365272864973e+00,9.974953394290640984e-01,9.999952996253802517e-01,9.967762994280030542e-01,9.981344145109302124e-01,9.971943545720132196e-01,9.976741136232426532e-01,9.977212174825207391e-01,9.983161916609281095e-01,9.979075624572035785e-01,9.987764928760310967e-01,9.996752107505241236e-01,9.979155047911520970e-01,9.989756328296620635e-01,9.965003517197706939e-01,1.001133194897656509e+00,9.979846385341947235e-01,9.998129063681415740e-01,9.961594067643791961e-01,9.982798470759823850e-01,9.997035132847580385e-01,9.977366020906297539e-01,1.001930766073247492e+00,9.981157058464045218e-01,9.968542135194080611e-01,9.970722709988691923e-01,9.973510000690457566e-01,9.987602885207388370e-01,1.000893009508314613e+00,9.978825226170183749e-01,9.992133196135413176e-01,1.000460190350015433e+00,9.987685292202314047e-01,9.985304611717101819e-01,9.983394871205401033e-01,9.986471577987191539e-01,1.000523533838143964e+00,9.964855881872173304e-01,1.000222045049811159e+00,9.974544535305496229e-01,1.001452621203081650e+00,9.992178416657857554e-01,1.000419869785120541e+00,9.987442795709983168e-01,9.999085381614579715e-01,9.985124596123041707e-01,9.997884579604799926e-01,9.984660855250850897e-01,1.001285867394463569e+00,1.000500336182301719e+00,9.977564018681581715e-01,9.996772693961675227e-01,1.001064237852038019e+00,9.986344039532624173e-01,1.000163799457737701e+00,9.994814909082112564e-01,9.991965915010638799e-01,9.997036173750546428e-01,9.980667619448612138e-01,9.999044187783939774e-01,1.000044397773162119e+00,1.000121784108420453e+00,9.982643321695273686e-01,9.985520765968648460e-01,9.989839630407006954e-01,9.982953644231853385e-01,9.980040494213469060e-01,1.000672870642778545e+00,9.985371305579635592e-01,9.985260806156328606e-01,9.983753465911029412e-01,9.994761562820045908e-01,9.967419191605336737e-01,9.987733705579232568e-01,9.995328624773029969e-01,9.993797419726606623e-01,9.992600084857722331e-01,9.975365439504327858e-01,9.998568308809739902e-01,9.980396524838494043e-01,9.988073050279261400e-01,9.997505260424228712e-01,9.979668684745560681e-01,9.983274522836550480e-01,9.997997083252486705e-01,1.000193956157475528e+00,9.992437599575145768e-01,9.985917016420866599e-01,9.987195736946286040e-01,1.000517542746101274e+00,1.001124517521198687e+00,9.998107531372562029e-01,1.000323298031800867e+00,9.994797267585888711e-01,9.971613729028662165e-01,9.977570851261393647e-01,9.978111578626087663e-01,1.000120868028446353e+00,9.977498146618026809e-01,1.001244989081901959e+00,1.000002173157162666e+00,9.994058384533517359e-01,9.984423811176673658e-01,9.993251468510830904e-01,1.001508046894833637e+00,9.990177872755154898e-01,1.000085774746828804e+00,9.989566487558035890e-01,9.987228356977246868e-01,9.993708248759430868e-01,9.992645100332450125e-01,9.981968859703647112e-01,9.983850894704525691e-01,9.982643770021097929e-01,9.993845007302815109e-01,9.995494571181314791e-01,9.996521295599271051e-01,9.995949522750554594e-01,9.995634650721297865e-01,9.992488333123731303e-01,9.983871739323569861e-01,9.990671641791044610e-01,9.996793976813213023e-01,9.973118248515842055e-01,9.966205965745613682e-01,9.995072672246301249e-01,1.000171508049131130e+00,9.975584638540329063e-01,9.979544060093046287e-01,9.991396471473362739e-01,9.999963801298086263e-01,1.000403469840629445e+00,9.982510031011625484e-01,9.982464951497882488e-01,1.000055945307867011e+00,9.975480603919851808e-01,1.000177981088562706e+00,9.980016546808375688e-01,9.971565156081724224e-01,9.996375602327958187e-01,9.991902130332249721e-01,1.000685521155501689e+00,9.969307227946775374e-01,9.976441292433138042e-01,9.983397092158489139e-01,9.976750976820500938e-01,1.000565663388070403e+00,9.988728176976227058e-01,9.981399096278219529e-01,9.984733635120603967e-01,9.997684600802771993e-01,9.971693636298856189e-01,9.989727928928373579e-01,1.000268471638340317e+00,9.986550974052517127e-01,9.987228023871509430e-01,1.000730797208826184e+00,1.001850529409341384e+00,9.989566537038793159e-01,9.975198394894674303e-01,9.982964224872231673e-01,1.002148172919418156e+00,9.976024905937844744e-01,1.001383292235520583e+00,9.978892267871798394e-01,9.991202421921494548e-01,9.985298717547701486e-01,9.977657597460900529e-01,1.000517701789321867e+00,1.000182066454255780e+00,1.000376039108067161e+00,9.997834782509600338e-01,1.003350543268860307e+00,9.998065586788976722e-01,9.999323606529981756e-01,1.001312251658667662e+00,1.007585463785441338e+00,1.002966197965314388e+00,1.003370911932135234e+00,1.008010219016951980e+00,1.005322256117349156e+00,9.990258408531582646e-01,9.922425003363077867e-01,1.023932494362406409e+00,1.013194940538723277e+00,1.023654390934844116e+00
9.958309541874271753e-01,1.007684578071120329e+00,1.005134865536148281e+00,9.986976651441603625e-01,9.958459214501510504e-01,1.001174473410229693e+00,9.907817042561258836e-01,1.000327229001163110e+00,1.002133657619810991e+00,1.004900068095502030e+00,1.000221739323251535e+00,1.008113234291576843e+00,9.993731257306474047e-01,1.005386094146067721e+00,9.988318466950714125e-01,9.993158282795405745e-01,9.995226546807072232e-01,9.973792167530923791e-01,9.976017327108761545e-01,1.005783243570173680e+00,9.997461592795339191e-01,1.001372971024480307e+00,1.006104931842199290e+00,1.000152581903786198e+00,1.003287863213752962e+00,1.002576046769263485e+00,1.000683475091129981e+00,1.004844054025449518e+00,1.004843394300965587e+00,1.000404777514894095e+00,1.005420551395166617e+00,1.001426626854387658e+00,1.000777142367122119e+00,9.994640943193997540e-01,1.003507263311737230e+00,1.000194897781242487e+00,1.001326363423578059e+00,1.001517144404562742e+00,9.999335504020201437e-01,1.002859301619283272e+00,9.992825322697417301e-01,1.004123741384586266e+00,9.999247401533699620e-01,1.000805295930402128e+00,1.001913052470281951e+00,1.007240114399403197e+00,1.000073884573824401e+00,1.000184401464848660e+00,1.000875787417301543e+00,1.002159239828037895e+00,1.000502032565475430e+00,1.001107933923643722e+00,1.002460170238518078e+00,9.997535081588798667e-01,1.001409460624189673e+00,1.000594887450196424e+00,1.004134352565068111e+00,1.000946306733906832e+00,1.000051366034360845e+00,1.003180591741594352e+00,9.989496894940477212e-01,1.000402176599136661e+00,1.002655129634261177e+00,1.004305813182618801e+00,1.003542271614698222e+00,1.000987981258912196e+00,1.002388215870254840e+00,1.002046189290309641e+00,1.000412590580472827e+00,1.000652391909005345e+00,1.003010386413001109e+00,1.001894585026878115e+00,1.000201920017058210e+00,1.002781842704072002e+00,9.992226439251908898e-01,1.002962602824588600e+00,9.999332066849234701e-01,9.987580970225143906e-01,1.003408312129958402e+00,1.000108974009698670e+00,1.000758529733918545e+00,1.002480879007178194e+00,9.989105340976888181e-01,1.001729204101046378e+00,1.001712626755097091e+00,1.002008070168791676e+00,9.995983632307502420e-01,9.991672372152724524e-01,1.002999819042351914e+00,1.001114893935425965e+00,1.000267017439807171e+00,1.000107820630084410e+00,1.000797036451926747e+00,9.982931395862290058e-01,1.001883757909222128e+00,1.001281559366938412e+00,1.000668129367087600e+00,1.001734323513914005e+00,1.000651937852002904e+00,1.002253512636448907e+00,1.000895456890570356e+00,1.002327110150530665e+00,1.000791438565064029e+00,9.998973944913307488e-01,1.000949596779977524e+00,1.001110265376316866e+00,1.001579440912294228e+00,1.000961246294997498e+00,1.000523433725237554e+00,1.001035702458713539e+00,1.002164892483435432e+00,1.002016942315449688e+00,1.002743490909445256e+00,1.001489128771380521e+00,1.000701330752909568e+00,1.001891919986931834e+00,1.002114569212549489e+00,1.000172071581777899e+00,1.000635427495912833e+00,1.001669832432617424e+00,1.001889429077849725e+00,1.001539115818465442e+00,1.003126630041881739e+00,9.999161603913060414e-01,1.000146763154032614e+00,1.002993580444567989e+00,1.001865216221122123e+00,1.001427264332727551e+00,1.003163037705788740e+00,1.002967600570173534e+00,1.000661247957196798e+00,1.003232200923765083e+00,1.002179566778539588e+00,1.002042560966855733e+00,1.001518521058458067e+00,1.002457692424908675e+00,1.001785026242062671e+00,1.001072414108784558e+00,1.002579083912882307e+00,1.000512872445029400e+00,1.002060764801745218e+00,1.001792523547241132e+00,1.000667159248956883e+00,1.001188323093296306e+00,1.003245400902464279e+00,1.002449868826775337e+00,1.001332288911407131e+00,1.001166716772177612e+00,1.000300754492045252e+00,1.001480254577703510e+00,1.000687703855071220e+00,1.002266124664211944e+00,1.002835637174359196e+00,1.001721704366308252e+00,1.001956632211567610e+00,1.000416195310718681e+00,1.001899730178428261e+00,1.000392552213905217e+00,1.003658791670348549e+00,1.002422432238657235e+00,1.002649665492421516e+00,1.001614498536754327e+00,1.001626494085165575e+00,1.001371817383669871e+00,1.001913271901792246e+00,1.002032015507547502e+00,1.001391519057533541e+00,1.000894391720221099e+00,1.001863094287137379e+00,1.001623355510127489e+00,1.001557129496702725e+00,1.001861098011828988e+00,1.001799075485153123e+00,1.001431588771871883e+00,1.002153176854451155e+00,1.001045192546185181e+00,1.000883935864299135e+00,1.003894845425275850e+00,1.000746005839294517e+00,1.001117545981034862e+00,1.002409601214872881e+00,1.001397609462024718e+00,1.000019750901628646e+00,1.001426840544590746e+00,1.003106805485562303e+00,1.003210331652893528e+00,1.001649313654999984e+00,1.001554569851356380e+00,1.000337709485415338e+00,1.001609031225531243e+00,1.001438334150183129e+00,1.002482443680388746e+00,1.001354881981862288e+00,1.001372108149412909e+00,1.002831760133259253e+00,9.990745624701917738e-01,1.001886710791440649e+00,1.001897830723952110e+00,1.002700918716491030e+00,1.000305560514715086e+00,1.004774099718612757e+00,1.000976271575781285e+00,9.988256892873091930e-01,1.004222661807299355e+00,1.001932087514959990e+00,1.001563721657544814e+00,1.004587468912093717e+00,1.004165911972468628e+00,1.005286205817954359e+00,9.994362197490134214e-01,1.000777756641632488e+00,1.005052344105598516e+00,1.006952723083200496e+00,1.007526979749518548e+00,1.009398165985975204e+00,1.008114354364137988e+00,1.016691003568970242e+00,1.011553320547291523e+00,1.005076631946864252e+00,1.020574053972180817e+00,1.018908360308070193e+00,1.018229235968810764e+00,1.011358473421172244e+00,1.015407095980311647e+00,9.868615757140934974e-01,1.000363715719793545e+00,1.039290666890784420e+00,1.002407932011331271e+00
9.913255688440087976e-01,9.988361081190495483e-01,1.005496381493060865e+00,9.899489659211994086e-01,1.008205163416643790e+00,1.008005908267985085e+00,9.986637534083315781e-01,9.918823552603047711e-01,1.002199988944779241e+00,1.003889165794997318e+00,9.933444089282486011e-01,9.898888311407800789e-01,9.968114125002117687e-01,1.011265544989027099e+00,9.961579235230962892e-01,1.000092994214431430e+00,1.002348282678131586e+00,9.997323190507909629e-01,9.967973449244620365e-01,9.972811842976871954e-01,1.002974351050679891e+00,1.002279449963422664e+00,9.996730858415757703e-01,1.002463107875406045e+00,1.000614879147243785e+00,9.976508589047129449e-01,1.002506075334143487e+00,1.001510205078522509e+00,9.986969149854776351e-01,9.991391351443801305e-01,9.999833213803225318e-01,1.000019990949551962e+00,1.003992903886247845e+00,9.997793329550469510e-01,1.001634873605026455e+00,1.001825884476904571e+00,9.993419066389408467e-01,1.001184112706000162e+00,9.994252109774737214e-01,1.001911139424287667e+00,9.997814984639668001e-01,1.000539146400104995e+00,1.000212969353229786e+00,1.003088024552014401e+00,1.001038782790988568e+00,1.001924272569012730e+00,1.000323245010482198e+00,9.995534741388374389e-01,1.000685857615958962e+00,9.997653974719710179e-01,1.000661972143856771e+00,9.998648144284149053e-01,1.001591874860217501e+00,9.999623012478286999e-01,9.991670710597029270e-01,1.000359834360118771e+00,1.000501621128340402e+00,9.999050726787304111e-01,1.003749720508342547e+00,1.001065351341739795e+00,9.982094104025029946e-01,1.002320995072125465e+00,1.002118472116169778e+00,1.003311391320069967e+00,1.003542271614698222e+00,1.000804644530454146e+00,1.001990746088149864e+00,9.992998540373670968e-01,1.000685405576540621e+00,1.000682425296120837e+00,9.986265215540022222e-01,1.001452078143437729e+00,1.002644344543394350e+00,9.981098756212171130e-01,1.002089243000247487e+00,9.994902880264736611e-01,1.003008805844259665e+00,1.003667157675453447e+00,9.982157112046925462e-01,9.980384678254236031e-01,1.002797171533526654e+00,9.988036519479603914e-01,9.992736893984591751e-01,1.001500898425113473e+00,1.000718198316653762e+00,1.003518182236427192e+00,1.002294499166901831e+00,1.001458958825661494e+00,1.001944657544022510e+00,9.987803509297017435e-01,1.000377762000095982e+00,9.998243371757052911e-01,9.989555253659824219e-01,1.000788767576875626e+00,9.990973897147956695e-01,9.997888025547151392e-01,1.001094870059614506e+00,1.001828980346086473e+00,1.000486138900630095e+00,9.989259897421470802e-01,9.978354849996146081e-01,1.000729538303686939e+00,1.000826184648408335e+00,1.001347296632525641e+00,1.001104515892118796e+00,1.000818391488728532e+00,1.001338800579828714e+00,9.994133148855581794e-01,1.000954835147136679e+00,1.003281804176405334e+00,1.001696234244259687e+00,1.001598038911471811e+00,1.001708468761725701e+00,1.000164804765212079e+00,1.002388075601679640e+00,1.000858343604746015e+00,1.001110572148842470e+00,1.002062858148989877e+00,1.002825239341005314e+00,1.001452290933555034e+00,1.002252393041577427e+00,9.988598392029000017e-01,1.000436203020477199e+00,1.002308656541841092e+00,1.000867236819283246e+00,9.988687231503209363e-01,1.000344251315979038e+00,9.990365438699312373e-01,1.000180562931492378e+00,1.000577241684346363e+00,1.001185500008090257e+00,9.998730555528431152e-01,1.000069468263857786e+00,1.001533552163613727e+00,1.001753646899767869e+00,1.001438914696957116e+00,1.000335236635704339e+00,1.002367157971829403e+00,1.000303036909459653e+00,1.002218091657165910e+00,1.001276955685391989e+00,1.002183619593912001e+00,1.000549808762169590e+00,1.000796568227374506e+00,1.002112981603609843e+00,9.979971400114139302e-01,1.000219155016371486e+00,1.001303466831056088e+00,9.983268495586944402e-01,9.986045177108873183e-01,1.001571894525877360e+00,1.001419200236350893e+00,9.995209998279106500e-01,1.001998937273854473e+00,1.003127304554488619e+00,1.001512028708621216e+00,1.000642115454354775e+00,9.995494571181314791e-01,1.001846733429454295e+00,1.000746140545950569e+00,9.999086322243992964e-01,1.002634181823125692e+00,9.990637407997157160e-01,9.998079455662861603e-01,9.986451966533255176e-01,1.002447891336266661e+00,1.000805616296466694e+00,1.001419817665520906e+00,9.982684735313741564e-01,9.994525756728412924e-01,1.000549224711537954e+00,1.001148337071128491e+00,1.001038902744947556e+00,9.997034739725494390e-01,1.001381560575552276e+00,1.000956345009791804e+00,9.987356360422051660e-01,1.000743959238535874e+00,1.000041655148387054e+00,1.003591930248838526e+00,1.000247933243973986e+00,1.000130374016979795e+00,1.002555766670748527e+00,1.001283359372509008e+00,9.998016362330185425e-01,1.001745541545109530e+00,1.002143284466813444e+00,1.002931156750142438e+00,9.987420321668285528e-01,9.977370309501889523e-01,1.000469749171394529e+00,1.001526636487939603e+00,1.003774847594449682e+00,1.004838007850581194e+00,1.005080510827318196e+00,1.002826848427230022e+00,1.000242050407398109e+00,1.000104527681870081e+00,1.004883207155750746e+00,1.000460057404177538e+00,1.001201429068260040e+00,9.998779660530273672e-01,1.003423694613056361e+00,1.001229956526421327e+00,1.001967287489929026e+00,1.000012028628134875e+00,9.998986994246540361e-01,9.976841669469815876e-01,1.002913445641002710e+00,9.988515587479902536e-01,1.002381428230880500e+00,1.002639963586709149e+00,1.001528158928528534e+00,1.006501350411961093e+00,1.009675579872081563e+00,1.010435650217367032e+00,1.017335566758045928e+00,1.020555550457452831e+00,1.022541961284650469e+00,1.028298790800999729e+00,1.029891728987610167e+00,1.018069563828937873e+00,1.017589407412215152e+00,1.015637817883511040e+00,1.035289897314021657e+00,1.031461409762129966e+00,1.021137118124133325e+00,1.006657223796033840e+00
9.954085743114816642e-01,1.002739844862610141e+00,9.994711155445167305e-01,1.002399037892336198e+00,1.005733315023345176e+00,1.000989840035695799e+00,9.929756767005543105e-01,9.920952512369650700e-01,1.001072356420319442e+00,9.996560124116337098e-01,1.004827094498476736e+00,1.004346857640412205e+00,9.957135354014536865e-01,9.987104676681241022e-01,9.990141596386151734e-01,9.981799703747001873e-01,1.001137299250663970e+00,1.000404633992990622e+00,1.001784549200229968e+00,1.002724575905071802e+00,1.002626699629171947e+00,9.978424741043881996e-01,1.003367976097253145e+00,9.955751247901998280e-01,1.000447817643087101e+00,1.002175624991657799e+00,9.985191373025515960e-01,1.002206283430078670e+00,9.984496428291074199e-01,9.973261879649952810e-01,1.000450322731290864e+00,1.002964112610836178e+00,9.996837834506193676e-01,9.998423806821764570e-01,1.000105755344545821e+00,9.995794311036343416e-01,1.000685231231618344e+00,1.003121751679455276e+00,9.965545883447406439e-01,1.000459266063201014e+00,9.970812108246313032e-01,9.967505500750433178e-01,9.981953649542116835e-01,9.997495339429063321e-01,1.000249119854852431e+00,9.973078836110421674e-01,1.000184711434561224e+00,9.999923801047582161e-01,1.000902920246064642e+00,9.974253493261528991e-01,9.992758291312171526e-01,1.000340902745736615e+00,1.000355211745668438e+00,1.000771374467505082e+00,9.977069104130602550e-01,9.956065385385501898e-01,1.000133083156498515e+00,1.000786116879264442e+00,1.000404885212020867e+00,9.988109503892630414e-01,1.001369832677943661e+00,1.000547541634969173e+00,9.998823991241219122e-01,9.997254458157273094e-01,1.001930766073247492e+00,9.991546139743328059e-01,1.001746149299162170e+00,9.999711804325308595e-01,9.984119472759759306e-01,1.000261957876505958e+00,9.992527879624306664e-01,9.980300249114985034e-01,1.000696220218816768e+00,1.000001592354152313e+00,1.000556605871009364e+00,1.000167812865130124e+00,1.000827926440366777e+00,1.000782737856777294e+00,1.000056474495659931e+00,9.992916689369585326e-01,9.971909065846045195e-01,1.001343319557204348e+00,9.993774480558221818e-01,1.000790614099989373e+00,9.985801771740001609e-01,1.001618363828756575e+00,1.001745728135649882e+00,1.000453407506817438e+00,1.001577644848951509e+00,1.001114893935425965e+00,1.001883888020022706e+00,1.000718400377977879e+00,9.994266095972704766e-01,1.001900265757583952e+00,9.992612937262325135e-01,9.998087059788780540e-01,9.989999612053915845e-01,9.984591971207494865e-01,1.000062430469344177e+00,1.000770594824857973e+00,1.001482544520811979e+00,1.000185310531685134e+00,9.993494761062766685e-01,1.001243732193868752e+00,1.001586486463225345e+00,9.994963744684747242e-01,9.990699060165812995e-01,9.998088973568594051e-01,1.001092883602144434e+00,9.975801613545721702e-01,9.996827395870599986e-01,9.995384305085797116e-01,9.990595137734938902e-01,1.000871110901835337e+00,9.988725442326642501e-01,9.987733705579232568e-01,1.000698216211962865e+00,9.988035022569389243e-01,9.987170799291377188e-01,9.999476288983738526e-01,1.000310535835633674e+00,9.996253468073472703e-01,1.000436203020477199e+00,1.001462080980882519e+00,1.000183710521481251e+00,1.000007258421583778e+00,1.000231587248931353e+00,1.000174982185548567e+00,9.989952203929899355e-01,9.986880870810312949e-01,9.992049922602705969e-01,1.000185534191998515e+00,1.000714220587788361e+00,9.980096450642460537e-01,9.987361986029605898e-01,9.997344211905767608e-01,1.000119727369894518e+00,9.995618796018989061e-01,1.000204931435174194e+00,9.989448547786971000e-01,1.001943193434292168e+00,9.990352964182119822e-01,1.001821105702364267e+00,9.988769693843572162e-01,1.000141010065949354e+00,1.000477388079619612e+00,1.001976734850638096e+00,9.986661442669707567e-01,9.993040302187690127e-01,9.999543533830663744e-01,9.990961606476205237e-01,9.984845086142281056e-01,9.995012698437055754e-01,1.000434551581272702e+00,9.986430342239775992e-01,9.996989225411823110e-01,9.995841221150550959e-01,9.984454040165228195e-01,9.971555159835839843e-01,1.000039270555050042e+00,1.000355319127336218e+00,1.001369774548025227e+00,1.000683400876120066e+00,1.000342954345917468e+00,1.001292751284994731e+00,9.986634212949216938e-01,9.998430617604285864e-01,1.000432016888357367e+00,1.000488680468757385e+00,1.000452836970414427e+00,1.000806562103494946e+00,9.999820009863459314e-01,1.001560164052517132e+00,1.000884716999934421e+00,1.000477667220270650e+00,9.986240971794608789e-01,1.001353876450382208e+00,1.000428870619861854e+00,1.000518795939001837e+00,1.000544771844969150e+00,1.001410120325102460e+00,9.991916810947245597e-01,9.988109957219547530e-01,9.990115741478812206e-01,1.000814899799491897e+00,1.001135212333532643e+00,1.001130644302595574e+00,1.000503358037737822e+00,1.002591920300561545e+00,1.002305991275092678e+00,9.998152998614021625e-01,1.000995632492134524e+00,9.988004738352421752e-01,1.000717134977538558e+00,1.000583009439200532e+00,1.002343599478217495e+00,1.000415172553086762e+00,9.983112246397878309e-01,1.000215534660667593e+00,1.003889888350247839e+00,1.001896993265673830e+00,9.997164505349752650e-01,1.000380410512561768e+00,9.996315798423162091e-01,9.976728905437223238e-01,1.000625488663017926e+00,1.001796534693379703e+00,9.985768623696534840e-01,9.985298717547701486e-01,1.002150717253763812e+00,9.993041124785394524e-01,1.003595812471552051e+00,1.004264443502124182e+00,1.013578192841107173e+00,1.010174924867072610e+00,1.003655022856619228e+00,1.012537151906036881e+00,1.016095730134987551e+00,1.017331310542990641e+00,1.020346855830156718e+00,1.026409197455073086e+00,1.017430875269446755e+00,9.977283053157655068e-01,1.023943806398687428e+00,1.017263799829603910e+00,1.044227831526878703e+00,9.980669832331805491e-01,1.051274787535410704e+00
1.000617926114809153e+00,9.912888837481655946e-01,9.950124187425939404e-01,1.006661224693265799e+00,9.891513320516340801e-01,9.947123053015421990e-01,9.997201105112045738e-01,9.998304717222890048e-01,9.957658504228621421e-01,1.002878263494492606e+00,1.007467498132272654e+00,9.985757966426599408e-01,9.985192213205021927e-01,9.932597267824637699e-01,9.973733431467214361e-01,9.993158282795405745e-01,1.002924941453116059e+00,9.997883452959742678e-01,1.002213556019650786e+00,1.001791423058091546e+00,9.978589087056330964e-01,1.000275654414181314e+00,1.000813484068636683e+00,1.000065392244479767e+00,9.973154144401467081e-01,9.976909010824734914e-01,9.991646415552855043e-01,1.002059740619224870e+00,9.993680822670538699e-01,1.000096918559904235e+00,9.997164634654835957e-01,9.961599203269791980e-01,1.000584196675974535e+00,9.980139965954227810e-01,9.997312774032035554e-01,1.002379804486752013e+00,9.989144851776343703e-01,9.997006078669486984e-01,1.001189447803840782e+00,9.971999585179039949e-01,1.001894767051272783e+00,1.000102000670290092e+00,1.001452354912626630e+00,9.981516239077776742e-01,9.988954119643336238e-01,9.990145486197463676e-01,9.972477996250357357e-01,9.985659357155156624e-01,9.977555121095322832e-01,9.987702045823702024e-01,9.989026367816603580e-01,1.002139458611174039e+00,1.000381523726828981e+00,9.976916764055109299e-01,9.992974425460102728e-01,9.992368029297482579e-01,1.001844152311478942e+00,9.998249777514091052e-01,9.959179110340284913e-01,9.987552861682142957e-01,9.960170454006206375e-01,9.997044244271406921e-01,1.001015342773426076e+00,9.980078080531430418e-01,9.990422184046094944e-01,9.990323894886942169e-01,9.974962800905007310e-01,1.000428902974688006e+00,9.988060133814070651e-01,9.995111231986223421e-01,1.001161409397641089e+00,9.982955290415628236e-01,9.974978071486148012e-01,1.001348723967000032e+00,1.002600122043326936e+00,9.991232954055346838e-01,1.001443046272233905e+00,9.980092572618965985e-01,1.000083948574629567e+00,1.001988775677000953e+00,9.992027241500072154e-01,1.000047030881652699e+00,9.966019039713626126e-01,1.000968185181270398e+00,9.997486305891712943e-01,9.995967621898248501e-01,9.974987175459595345e-01,1.000617101907559370e+00,9.995590750260605617e-01,9.988925885742077071e-01,1.001330165218578871e+00,9.994754344626232134e-01,1.001032578567570885e+00,1.000096702671906534e+00,1.000695453826305092e+00,1.000226677886300708e+00,9.997564560694165436e-01,9.979101874941496142e-01,1.000744048380543427e+00,9.994504362852707491e-01,9.999703491095838226e-01,9.988510747035519444e-01,1.000096516898178578e+00,9.995521796958082295e-01,1.000863530606565632e+00,1.000080122243651726e+00,9.992417919683425076e-01,9.986565484187212016e-01,9.996951429951913548e-01,9.997917076612226062e-01,9.994397316111910401e-01,9.994860675830824492e-01,9.982350046049714987e-01,1.000959399168913189e+00,9.996537734257787688e-01,9.998960483523663401e-01,1.000895429920905411e+00,9.995057944104747127e-01,1.001015477485557081e+00,9.995669312750147251e-01,9.991853475480775293e-01,9.997893841511573676e-01,9.978921937961560129e-01,1.000689120686094391e+00,9.994447631725063008e-01,9.995593101181360352e-01,9.990298372004231542e-01,9.989227000383694710e-01,9.987466808284651831e-01,1.000037483226256185e+00,9.999234117374209418e-01,9.997949358930542374e-01,9.994637918383473263e-01,1.000691729912098094e+00,9.982659469203413183e-01,1.000792382677295533e+00,9.989246305322208030e-01,9.959326733191216086e-01,9.981447164751793277e-01,9.982588470496767119e-01,1.000434360885312346e+00,9.991917348368802854e-01,9.981636821974965157e-01,9.999347075223462555e-01,9.980909406456091038e-01,1.000243033931442760e+00,9.985396898414055089e-01,1.000170394914634331e+00,9.984050240115003305e-01,9.997000365172934444e-01,9.991354580107675298e-01,1.001360112485569998e+00,1.000468039069753123e+00,9.983553047746768216e-01,9.993375008680832616e-01,9.976666496941628548e-01,9.981468481446855723e-01,9.984454040165228195e-01,9.999138713058339789e-01,9.973733608750826596e-01,9.973503345075784843e-01,1.000513240587473485e+00,1.000642396823552716e+00,9.992729367866549639e-01,9.991002451056436584e-01,9.989337405835891914e-01,9.988386570271712284e-01,1.000410999850545490e+00,1.000488680468757385e+00,1.000005911709796580e+00,1.000956675582136413e+00,9.991828447801059943e-01,9.995402764856853306e-01,1.001212840063096854e+00,9.993092197122238618e-01,1.000312200370938376e+00,1.000369239031922319e+00,1.000091275671282531e+00,9.994509094076259315e-01,9.979558327499523651e-01,9.983651901725459910e-01,9.998252988172469102e-01,1.000730783360260556e+00,9.976724165417848456e-01,1.000839025122503001e+00,9.993286378672655568e-01,1.001525820952046564e+00,9.993270019605934307e-01,1.000894930136350336e+00,9.999311644395495469e-01,1.002249851294573446e+00,9.995353715036705555e-01,9.994995750122118716e-01,1.001290236502928588e+00,9.991948917268184127e-01,9.981080645721668310e-01,1.000068928261709456e+00,1.003161962376567518e+00,9.994881051809143546e-01,1.000583654915747855e+00,1.001549211166967046e+00,9.978428705255715236e-01,9.991895602123682663e-01,9.984072913183207332e-01,1.004360885787814572e+00,1.002718469958501224e+00,9.982985638059246325e-01,9.984992366807254882e-01,9.998167925287100299e-01,1.004656407258148754e+00,1.000431016838551734e+00,9.997724169321802190e-01,1.003880403561970391e+00,1.008091075885175103e+00,1.006513061570470935e+00,1.006220665641767154e+00,1.013611423887829988e+00,1.017004212052526668e+00,1.013085595123860205e+00,1.018529270693964150e+00,1.015693715816497367e+00,1.015514809590973178e+00,1.020120724346076369e+00,1.033634126333059733e+00,1.021299493296264682e+00,9.983996508329090469e-01,1.010169349077614687e+00,9.832861189801699320e-01
9.890728761722996643e-01,1.001308474723304531e+00,1.000676168734225602e+00,1.007558527177672136e+00,1.001407580335072822e+00,9.897272041891261862e-01,1.000288918181982289e+00,9.969208933745983270e-01,9.948372118733070923e-01,1.000351007743230713e+00,9.988708351385188200e-01,1.001613197167792624e+00,9.969943920166715046e-01,1.001527704530375429e+00,1.005577425606190456e+00,9.963267285299607368e-01,9.966393608057845244e-01,1.001413106406289888e+00,1.003822331592479244e+00,1.000080642838627965e+00,1.002875022073106193e+00,9.996077225644341979e-01,9.977116008910310585e-01,9.982344093990452860e-01,1.001199594411792626e+00,9.990923773040936151e-01,9.990127582017011010e-01,9.949157785900953899e-01,9.956943245152680699e-01,1.000404777514894095e+00,1.003185616358390098e+00,9.972067191398802377e-01,9.965323371618761694e-01,9.978248534140343740e-01,1.000074548849433809e+00,9.972098843948423719e-01,9.972047993324083537e-01,1.000033639565511390e+00,9.977506811083793892e-01,9.992148031822694065e-01,9.993118832223432113e-01,1.000102000670290092e+00,9.990888754737767830e-01,9.998351362662167841e-01,1.002364288433788220e+00,9.984270082069137686e-01,9.984668950931406828e-01,9.988128203213461065e-01,1.001635506622671423e+00,1.001513709305053679e+00,9.962369771419686826e-01,9.989919858466584923e-01,9.982239412716580329e-01,9.992054263003894432e-01,9.982544706555512848e-01,9.991323348897137580e-01,9.970794828183795477e-01,9.992109166419460564e-01,9.998338157711854635e-01,9.979759870735309679e-01,9.975545481292134031e-01,9.973204378394879832e-01,9.985705696354538752e-01,9.995446418407184508e-01,9.969138148592973092e-01,1.000162965980851526e+00,9.968236389207845161e-01,9.998796359240994525e-01,1.000018524475041692e+00,1.000081757553813899e+00,9.975230997867712279e-01,1.000449062540972767e+00,1.002091891376722943e+00,9.998296181057035881e-01,9.988252935583513681e-01,9.979093967362751005e-01,9.983394871205401033e-01,1.001171025140060733e+00,9.971716962038453813e-01,9.986650683811910678e-01,9.989881302763642390e-01,9.982216447875086329e-01,9.983658011465331716e-01,9.971884578797166609e-01,9.997237698782102111e-01,1.000156965053625280e+00,1.002008183846248679e+00,1.000149403619724930e+00,9.973799371490760235e-01,9.992517490366268351e-01,9.977420414652243830e-01,9.994536280430555975e-01,9.973281434760781217e-01,9.996143544048067264e-01,9.991383657176549082e-01,9.989329553157070274e-01,9.988253854675397392e-01,1.001374627551658847e+00,9.992518578181881495e-01,9.998663766470584635e-01,9.991875656025951402e-01,9.985350714810993233e-01,9.972299650222761214e-01,1.000242609286853268e+00,9.997102438828466831e-01,9.981743574482209169e-01,1.001424743555709318e+00,9.995165103128541562e-01,9.990394128339047386e-01,1.000085428655074660e+00,9.991620082101979605e-01,9.972170074782015226e-01,9.976736366604455064e-01,9.996703904695759535e-01,9.974343723089761360e-01,9.990228545122439296e-01,9.985647224515855624e-01,9.981192175945192702e-01,9.983008347023846207e-01,1.000672767228581783e+00,1.000836833583039098e+00,9.990238765467102100e-01,9.979104960207914043e-01,1.000137006189816935e+00,9.982255000466974115e-01,9.995779746307796865e-01,9.990673918894390493e-01,9.990744918137851593e-01,9.976760488582050446e-01,1.000692904211079926e+00,9.993797429439017499e-01,9.974708760143349284e-01,9.999522405685977722e-01,9.988710445774248159e-01,1.000068578370381989e+00,1.000518096365924148e+00,9.985132037520380033e-01,9.974628251572655868e-01,9.992238766923194904e-01,9.993564594161093995e-01,1.000728289303944862e+00,9.975295766385294804e-01,9.999630563282336793e-01,9.968398440815633421e-01,9.978566469975702624e-01,9.989345566041215596e-01,9.985982758358810107e-01,9.994280374521510302e-01,9.999880566808213578e-01,9.999152277114089493e-01,9.995087829606633667e-01,9.997844391314100188e-01,9.999747894646268120e-01,9.986523400327619315e-01,9.996946551421947991e-01,9.996192255667893933e-01,9.999833648846021550e-01,9.987866567933837425e-01,9.993501198531113960e-01,9.998978965568700028e-01,1.000071063825467288e+00,9.988001726663697788e-01,9.980386394855358390e-01,9.992317822651448633e-01,1.001913271901792246e+00,9.996615232838479415e-01,1.000387114324276183e+00,9.992970968465102466e-01,9.997486114896295684e-01,9.991333433438286393e-01,9.976112894866953074e-01,9.978869157970142734e-01,9.988452614089259329e-01,1.000534719065894418e+00,1.000609944296653397e+00,9.988017922522479664e-01,1.000525885893950084e+00,1.000563908599293450e+00,9.991100945571869119e-01,9.998574428816904280e-01,1.000178202019106344e+00,9.987927366027660181e-01,9.997116368362216621e-01,9.996811529509294081e-01,1.000091140109153676e+00,9.984741769710582249e-01,9.980927238099420729e-01,9.999026655728130430e-01,1.000236396639790692e+00,1.002667377967457973e+00,9.978257739590257192e-01,9.963758977286304441e-01,1.000897777366151375e+00,9.985884721689467503e-01,9.988339811215991570e-01,9.990461360614263375e-01,1.000011220879813312e+00,9.994577626502993972e-01,9.983666513996281022e-01,1.000027466113682317e+00,9.996206013468652563e-01,9.981659015616756170e-01,9.989249268123252534e-01,1.000515788220757374e+00,9.983768900431004845e-01,9.981355626390809865e-01,9.961030288872028127e-01,9.999353119258932443e-01,9.979266276419858084e-01,9.984339437472593559e-01,1.002424770706265678e+00,1.003413746017296271e+00,9.988398793474521087e-01,1.004603936137479891e+00,1.003406026046081534e+00,1.015994542918520427e+00,1.015187022794459937e+00,1.014443944830370814e+00,1.025243780187733655e+00,1.015916492060687126e+00,1.023194552963500481e+00,1.029725630039652007e+00,1.030051275394301191e+00,1.015868539786710434e+00,9.941258239540827768e-01,1.037026260274969136e+00,1.032483086103290315e+00,1.026203966005665658e+00
1.008924730341736575e+00,9.935010012361833454e-01,9.977840410789242664e-01,1.001726061029031500e+00,9.983177698434495539e-01,9.924967048071351439e-01,9.997201105112045738e-01,1.000469159652269902e+00,9.993477419711458420e-01,9.986451101111289974e-01,9.962918362403927475e-01,9.990010327161784609e-01,1.000836961862324959e+00,9.990166890661948962e-01,9.992572435633402250e-01,9.968049844898935197e-01,1.001656292148149996e+00,1.001637211387023108e+00,9.960465829904754376e-01,1.002102474007084965e+00,1.002130054741303233e+00,9.976039270151927374e-01,9.949290292170025474e-01,9.975804869542472808e-01,9.963130454152058224e-01,9.988521242375301146e-01,9.989368165249088438e-01,9.987991630777246499e-01,1.001593531674385584e+00,1.001123115076537173e+00,9.977817435829010595e-01,1.000935939910840400e+00,1.001323821825373495e+00,9.958388500094571549e-01,9.980149201720518448e-01,9.998871644424384142e-01,9.964720768273115370e-01,9.975510396307720740e-01,1.000232573592929830e+00,9.991555430450821396e-01,9.984900565495019586e-01,9.973916971454384051e-01,9.990312296338048625e-01,9.984654990932493313e-01,9.978237265510061516e-01,9.992663516538174973e-01,1.000434071871219022e+00,1.001830298837051547e+00,9.965074019864246235e-01,9.989315872131162566e-01,9.991425461492325910e-01,9.987010429860729843e-01,9.998815960847772244e-01,1.000927969284216568e+00,1.000783677489914369e+00,9.990801008696965635e-01,9.988432002550516886e-01,1.000091960842480088e+00,9.985285141921331764e-01,9.971410237577988944e-01,9.990635785850545680e-01,1.000780125692301015e+00,9.970202256943005992e-01,9.984598179906651882e-01,9.992246529942077071e-01,9.996740680382969479e-01,9.992696068106616814e-01,9.981708051000462989e-01,9.997153967016330078e-01,1.000081757553813899e+00,9.999386987907094015e-01,9.969385079323455079e-01,9.990970136837157289e-01,1.000918788345878330e+00,9.985698540368116438e-01,9.994055974216415894e-01,1.001079566371585239e+00,1.001670251647139187e+00,9.961551552819679634e-01,1.000790061570315581e+00,1.001053596310177651e+00,9.981158253037901718e-01,9.980285855101035386e-01,9.994207800443927203e-01,1.000718198316653762e+00,9.992557691422943034e-01,9.993597671302058005e-01,1.001996811856671332e+00,9.972881839753082733e-01,1.002731116016311708e+00,9.996025500780748585e-01,9.992573702669469426e-01,9.991268287228144418e-01,9.969090097762906000e-01,9.985442136761962795e-01,9.982960457424917555e-01,9.995430857231530908e-01,9.981752266242323035e-01,9.997492546723065754e-01,1.000300401372402170e+00,1.000379531397327826e+00,9.985877386848414083e-01,9.995579526063422815e-01,9.984302316103599306e-01,9.993487659545168267e-01,9.971098762111335612e-01,9.991042832069335633e-01,9.990349316521397460e-01,9.982456342176104780e-01,9.988759892686250863e-01,9.981726185941601770e-01,9.994337046575851868e-01,9.974982091777812032e-01,9.994584986285889316e-01,9.994052005006969219e-01,1.000038610611978074e+00,9.986364365275646193e-01,9.998119217594518826e-01,9.976493204344232257e-01,9.973371309096256132e-01,9.998205344846011755e-01,9.984224062860730387e-01,9.991001406220926251e-01,9.972844146257174858e-01,9.968215000836447848e-01,9.983087877710113967e-01,9.966075597588989199e-01,9.982965589647799787e-01,9.971407328730749198e-01,9.985724245542977329e-01,1.000428247045688668e+00,9.986817307410625899e-01,9.979984456475962107e-01,9.998303303989193314e-01,9.987557924230697770e-01,9.958944128313749200e-01,9.985719790063498635e-01,9.991891503079920467e-01,9.995770563997471436e-01,9.986704516870890114e-01,9.972207435082642846e-01,1.000110810546556595e+00,9.995132127955493884e-01,9.989161448709493740e-01,9.984033321763275959e-01,1.000321151980835044e+00,9.982272312042025364e-01,9.999164305195742397e-01,1.000867519274888595e+00,9.995826595023213912e-01,9.997445671395449596e-01,1.000493492140781981e+00,9.971336717390993920e-01,9.998206787145634822e-01,9.996351294298428947e-01,9.982046042713150769e-01,9.993845007302815109e-01,9.999910783587748764e-01,9.988266363612975374e-01,9.974945385878084547e-01,9.992182979198602766e-01,9.981679690288195461e-01,9.991047448522829555e-01,9.978531057945565497e-01,1.000175814174759203e+00,9.994951729523602335e-01,9.995291852812856481e-01,1.001272698400836880e+00,1.000171508049131130e+00,9.999846295545290475e-01,1.001085344278114908e+00,1.000997145356434359e+00,9.983022808802076709e-01,1.000119096519221928e+00,9.985155572539278213e-01,9.972691722494592126e-01,1.000458751524509582e+00,9.997311743927979055e-01,9.992464204973625641e-01,1.001186278877362668e+00,1.000968489234273617e+00,1.000810926385615085e+00,9.982184686730949386e-01,9.989876606192008568e-01,9.970272240867226188e-01,9.996704222257485339e-01,9.973764661328123893e-01,1.000152954099865044e+00,9.990712989151083745e-01,9.994148977361705377e-01,9.989514267722123808e-01,9.995088213038803016e-01,1.001005331393377329e+00,9.996528035732425987e-01,9.971960022209883645e-01,9.976248156231543041e-01,9.967219001117278987e-01,1.000222121323973701e+00,9.983969609612844964e-01,1.001356139363060782e+00,9.975655253090518482e-01,1.000491725021625200e+00,9.978663932121533131e-01,9.974210588962132418e-01,9.984120900180694091e-01,9.968003849161002350e-01,1.002764058555867255e+00,1.001177322948741066e+00,9.989320344966263754e-01,1.000354972750621130e+00,1.004028442295513912e+00,1.006873008648156542e+00,1.002056213846239885e+00,1.005014187872502962e+00,1.008343993218771661e+00,1.014650634792966910e+00,1.013897896416308120e+00,1.017664926174373541e+00,1.011155724478800977e+00,1.031933961073385086e+00,1.028418350262306102e+00,1.029885302179524675e+00,1.032387875640942365e+00,1.007562551271534046e+00,1.035020851082911086e+00,9.993816832763512403e-01,1.005252762953313450e+00,1.009631728045325749e+00
9.664051561632263088e-01,9.713798263560063928e-01,9.689832698448829218e-01,9.694231715904063629e-01,9.532065366657510586e-01,9.356296254506849541e-01,9.217934596146553083e-01,9.309231406099075512e-01,9.446907301973356264e-01,9.618103575364872482e-01,9.705018472591313561e-01,9.768280088827090424e-01,9.840638395201870559e-01,9.897075585648423823e-01,9.916000999345023770e-01,9.877181212511706443e-01,9.919107588509112894e-01,9.897036211629803848e-01,9.893969772894515291e-01,9.896604360473488793e-01,9.825622461592795620e-01,9.872986927619511466e-01,9.856689956132681507e-01,9.829762190204242023e-01,9.811104485369357420e-01,9.791513727793275113e-01,9.816221142162818714e-01,9.770009199632014862e-01,9.747468404113351914e-01,9.802571192383341403e-01,9.757993228480410508e-01,9.770885544544378742e-01,9.796174315712746772e-01,9.754744341466490276e-01,9.777306983493497805e-01,9.770533507031706755e-01,9.764748584590439151e-01,9.764186645765282613e-01,9.737391188783308671e-01,9.758663091305056492e-01,9.752734530417370706e-01,9.749224066329579275e-01,9.727735495265835697e-01,9.742971098119284079e-01,9.763618160367382171e-01,9.773594876896295469e-01,9.756642684965411982e-01,9.781019450544593541e-01,9.763205773865961667e-01,9.758538710164267327e-01,9.785903103272097781e-01,9.797368583460926983e-01,9.790161950244044009e-01,9.800747595254596378e-01,9.782294103587388934e-01,9.819212252940341390e-01,9.827328260573895413e-01,9.844467517057253758e-01,9.880045202110238067e-01,9.861473401006595196e-01,9.911198144873250016e-01,9.909825222771918574e-01,9.918921649658708484e-01,9.924330188237028283e-01,9.894948082156377334e-01,9.909350173151354468e-01,9.851441422466215014e-01,9.882229685171654010e-01,9.841649419257706422e-01,9.839838620599898888e-01,9.863695932747603701e-01,9.835452995935491938e-01,9.863615143678207131e-01,9.860430158550702595e-01,9.849464128880275338e-01,9.831450012938842686e-01,9.829335313315014089e-01,9.851957769135474274e-01,9.854677385627698127e-01,9.856699177246226462e-01,9.853345950658312091e-01,9.865021369656852279e-01,9.857072449482503496e-01,9.883606384103159614e-01,9.859509360057677751e-01,9.886849846688443577e-01,9.850440010975419769e-01,9.887609503109544562e-01,9.893056578575124549e-01,9.890156758576825746e-01,9.884837962250870858e-01,9.873510651830225138e-01,9.877779813326924563e-01,9.874927327359516172e-01,9.880748449456669968e-01,9.886229815992844117e-01,9.889327603225986918e-01,9.879333573831803328e-01,9.888433680931176806e-01,9.901550734174925372e-01,9.907726429024663606e-01,9.888267502579717316e-01,9.909235508952907168e-01,9.910253742464009141e-01,9.918782221023670909e-01,9.914269199292634616e-01,9.921772793509586741e-01,9.917252555520095214e-01,9.917055886616202853e-01,9.905999683242066034e-01,9.896673394387479616e-01,9.900258323765785962e-01,9.892531174925565107e-01,9.886696723916703622e-01,9.882549292898804572e-01,9.865664770786616300e-01,9.864091865731329234e-01,9.849017191151518968e-01,9.849447922091763008e-01,9.853360915446855994e-01,9.853382723318619973e-01,9.846432694060228696e-01,9.852270543484561438e-01,9.848250308263927222e-01,9.829847109740865729e-01,9.823319649480453108e-01,9.822804458993409371e-01,9.833830170301938178e-01,9.839298990971853121e-01,9.840760545370232926e-01,9.853220212829073565e-01,9.851084398527444330e-01,9.860998345786966546e-01,9.848537252266068576e-01,9.838253014999068791e-01,9.841784689599324398e-01,9.835842891568362667e-01,9.831814080012554191e-01,9.814275436569360744e-01,9.827158719321570368e-01,9.829946080464536662e-01,9.852491607730664569e-01,9.808349269819193195e-01,9.831871870041851702e-01,9.836428323498784820e-01,9.843460108801083130e-01,9.827019426681796732e-01,9.830180303867313008e-01,9.839036630159920804e-01,9.838737023318899766e-01,9.848312178252839333e-01,9.837519627528326094e-01,9.829478130956673665e-01,9.821173773326894452e-01,9.839600251771716266e-01,9.848354368169028872e-01,9.840935026566278720e-01,9.833499870636202012e-01,9.841690985905094946e-01,9.823877170679931048e-01,9.825690588103915823e-01,9.821997287642457719e-01,9.826006136939867686e-01,9.817411106233537854e-01,9.842284343230637278e-01,9.841701486640566099e-01,9.840446123102355447e-01,9.844380511134359635e-01,9.837208318845209742e-01,9.833207019800681570e-01,9.854306529340631782e-01,9.831565230225383090e-01,9.839241564797487349e-01,9.846316879379531928e-01,9.832155087523332115e-01,9.850082122271486273e-01,9.857563246170543136e-01,9.846069206964458420e-01,9.835234953971061511e-01,9.846445618277860357e-01,9.854881573136432538e-01,9.861438494753749229e-01,9.855857919914045029e-01,9.826786340592417179e-01,9.839271736916034294e-01,9.846563236209611159e-01,9.844591294038871343e-01,9.858364503524896794e-01,9.852167672759509776e-01,9.856047634207832919e-01,9.879043224195427353e-01,9.828087456358108875e-01,9.896852700278296888e-01,9.852433937920066498e-01,9.854802887284841439e-01,9.871070443799411231e-01,9.852381311143776355e-01,9.868752429451981278e-01,9.876976856965810070e-01,9.872351236661769391e-01,9.891239052768029394e-01,9.906069753168396108e-01,9.907874497610029696e-01,9.914696563490129622e-01,9.915480948991325372e-01,9.950321765802609963e-01,9.932376697559895939e-01,9.967526586798457489e-01,1.002028687608919055e+00,1.005867490760268046e+00,1.006542305867848874e+00,1.022257624032771872e+00,1.035467688639618355e+00,1.060039201832457811e+00,1.084299915234645972e+00,1.136396493621526949e+00,1.204760218514878689e+00,1.282776467565360123e+00,1.341549578912946794e+00,1.421010779289627157e+00,1.469762250251144264e+00,1.487824999334699472e+00,1.535535795417667160e+00,1.525763945857259829e+00,1.526299269091072164e+00,1.516585436822579513e+00,1.481783418077908809e+00,1.420538243626062291e+00
9.711921280906082865e-01,9.677363387286830321e-01,9.789852113194663641e-01,9.595528442619375431e-01,9.563993408404284358e-01,9.320292746472733647e-01,9.315444482565592432e-01,9.255297758678467934e-01,9.494665855950472633e-01,9.607362738422009496e-01,9.741861313993116500e-01,9.774354889877355790e-01,9.833319214543483344e-01,9.950970551708886447e-01,9.895946575555210067e-01,9.968647664848850898e-01,9.804929151062173887e-01,9.899837523888969093e-01,9.856967934719461644e-01,9.860833501339246743e-01,9.869823856613103574e-01,9.849132218699970798e-01,9.813354823504367719e-01,9.784423567364910479e-01,9.806510294005044148e-01,9.813937347339196648e-01,9.789261846901579078e-01,9.790158836124430719e-01,9.777141062877776623e-01,9.782389327556226810e-01,9.815701252564337231e-01,9.736537458496061781e-01,9.772699256623129660e-01,9.761679591450728166e-01,9.773874269031195272e-01,9.743452973216941704e-01,9.731776071861081290e-01,9.762672865317271187e-01,9.716160542228720054e-01,9.737922043289529705e-01,9.726612182602059065e-01,9.748349774869948803e-01,9.723123828068079844e-01,9.735552230099043802e-01,9.737954114942961592e-01,9.738062670977369883e-01,9.746114133195414864e-01,9.774435861055781327e-01,9.769174996193867866e-01,9.793773917877162116e-01,9.758713374947243224e-01,9.779912011825798723e-01,9.772269803054820514e-01,9.798398673003922976e-01,9.780729645751700119e-01,9.780297908027498766e-01,9.840490330996821688e-01,9.844734500148324408e-01,9.828920890264022381e-01,9.836424501534632991e-01,9.890698108492013141e-01,9.900521860478639358e-01,9.878970478867453719e-01,9.870390335692713624e-01,9.874272162001915820e-01,9.918822570788347059e-01,9.854498882328560638e-01,9.834016244064440748e-01,9.865899641130396747e-01,9.862964328678713866e-01,9.827312836638905091e-01,9.858463353874392654e-01,9.861289025081697579e-01,9.867882375983477727e-01,9.834989222659692443e-01,9.843306697615332723e-01,9.838562110793022120e-01,9.869153348823734850e-01,9.848358347464676310e-01,9.872772843676782539e-01,9.844225711028486980e-01,9.838831047436523702e-01,9.870301678296282688e-01,9.872191100306521028e-01,9.885861713676430407e-01,9.876132922337480524e-01,9.855450529086852152e-01,9.863756890429984381e-01,9.865530626444795059e-01,9.871749784877847933e-01,9.879522223357012356e-01,9.869585496308052042e-01,9.882490655639805111e-01,9.884154859425772210e-01,9.875831329113563539e-01,9.875880035428095116e-01,9.900190093581217043e-01,9.900726017902762299e-01,9.893776091586522492e-01,9.889615054227973712e-01,9.918222844232013058e-01,9.910738842843014318e-01,9.899680336033233052e-01,9.905420735326693205e-01,9.911552662457073781e-01,9.911522150938860687e-01,9.912834724018005916e-01,9.896957454818557931e-01,9.909463221590778526e-01,9.882329226678697731e-01,9.884870149845275122e-01,9.880709498246811329e-01,9.889899762685600004e-01,9.893406632214623020e-01,9.851300125174222710e-01,9.851943153298979849e-01,9.845087635596875275e-01,9.856760412331529997e-01,9.851076707761665663e-01,9.839764571755459377e-01,9.844490106207288704e-01,9.854999088681423158e-01,9.816581205445522595e-01,9.821932850608041665e-01,9.827445530856696587e-01,9.806334942974729296e-01,9.841769576946428622e-01,9.841419759072720375e-01,9.848093467870420170e-01,9.830929230597879043e-01,9.824677601169319319e-01,9.814368158426669542e-01,9.834622114353445133e-01,9.806054594457025431e-01,9.817483565683383651e-01,9.824347916947846482e-01,9.803712419211235707e-01,9.833187293200632562e-01,9.801325513963679015e-01,9.816574600073827428e-01,9.824459416650064281e-01,9.820812827950330393e-01,9.835731050069540515e-01,9.828346076248555274e-01,9.835842589378687162e-01,9.835648303861852515e-01,9.839517772169915633e-01,9.830180303867313008e-01,9.830437440351263989e-01,9.821912984506233624e-01,9.824144299917475509e-01,9.833186525804386013e-01,9.818626639643894816e-01,9.804143751863346745e-01,9.825314080807256989e-01,9.826238457774993940e-01,9.838938812718542870e-01,9.825269656606029356e-01,9.823973083105240756e-01,9.807720142316491696e-01,9.827924022618600430e-01,9.826891767417039736e-01,9.822315772208820572e-01,9.807122475856013821e-01,9.832976533978674549e-01,9.811342551144062174e-01,9.821195032381589973e-01,9.818529554625616829e-01,9.825367215179167113e-01,9.841081417249660790e-01,9.845299720622137096e-01,9.834373076355414911e-01,9.849666790948876649e-01,9.826848244298558299e-01,9.851114801804846666e-01,9.830535664264903328e-01,9.853087621541181118e-01,9.828964396236441470e-01,9.820466310452035108e-01,9.838655890027366846e-01,9.833729768259895643e-01,9.825298817246918004e-01,9.814855048132947735e-01,9.847351975257468970e-01,9.844096801518287254e-01,9.849981079794440930e-01,9.850271958374726688e-01,9.862619408484780692e-01,9.844315927223606932e-01,9.835655099424363002e-01,9.875116528335473598e-01,9.839769544265820622e-01,9.845764537345895739e-01,9.826507916533373521e-01,9.853970016657412900e-01,9.870501915624102507e-01,9.843148130040380028e-01,9.888743348609618788e-01,9.888191394778672594e-01,9.901087658101817013e-01,9.880173258718264462e-01,9.916729777359831743e-01,9.877441656605083775e-01,9.898372716503522906e-01,9.921112944986351101e-01,9.913514163709628013e-01,9.935725818622352934e-01,9.931818769891582743e-01,1.000942848205907287e+00,1.001482533252594509e+00,1.007972607555556621e+00,1.019025944469731382e+00,1.030379159432580849e+00,1.052859796469555853e+00,1.089737227402327369e+00,1.128333044868205404e+00,1.199746949266510931e+00,1.282941646095821842e+00,1.348304126170654094e+00,1.423509958851892021e+00,1.462261413104141150e+00,1.499960081965031833e+00,1.515090543259557165e+00,1.532224159146841513e+00,1.521994529393300599e+00,1.510365898014112362e+00,1.459469681052233403e+00,1.404815864022662897e+00
9.649972232434080865e-01,9.622711072876981575e-01,9.644040677239892334e-01,9.538325409238476160e-01,9.482628398791540514e-01,9.311061077746036752e-01,9.215496848986076683e-01,9.316327938654418439e-01,9.549057542424409517e-01,9.601676412981670072e-01,9.692737525457379988e-01,9.756737966831585673e-01,9.749148636972028159e-01,9.882376958541025935e-01,9.839429563056645289e-01,9.880768132211202870e-01,9.848755217960999397e-01,9.837648391735506204e-01,9.863403037010776142e-01,9.805881167017078681e-01,9.816186208723292062e-01,9.830525545742729854e-01,9.841180540244652830e-01,9.796630119667807390e-01,9.847440362523464108e-01,9.818341986892860085e-01,9.785464763061968441e-01,9.772207341794824087e-01,9.765837192872280914e-01,9.759813004190301955e-01,9.762329669596544468e-01,9.810140500028168287e-01,9.761765667458102147e-01,9.744656705125780416e-01,9.745476358479412404e-01,9.759762840173561438e-01,9.730860168729710269e-01,9.756920499614826214e-01,9.737391188783308671e-01,9.755700084445695364e-01,9.739526601746707479e-01,9.734943972488961927e-01,9.706982992875935468e-01,9.728418703156505032e-01,9.744158609441173624e-01,9.744217856254664412e-01,9.733369044210681276e-01,9.757153938647650238e-01,9.745026778594610972e-01,9.754504144395615972e-01,9.778172690316991877e-01,9.776738089710321766e-01,9.779374037968189270e-01,9.785610096305812355e-01,9.791680850601519603e-01,9.805109067535686673e-01,9.784683152403613748e-01,9.838059922871551510e-01,9.855026921845068122e-01,9.854237052270250485e-01,9.864503617560431703e-01,9.834235404139027859e-01,9.914449503674612751e-01,9.899620311652481686e-01,9.883697949131154958e-01,9.866877164391932853e-01,9.837682853085656376e-01,9.841950101461830469e-01,9.850743252459965849e-01,9.832330273821063837e-01,9.862801266449848780e-01,9.822177789432279260e-01,9.865068967801026156e-01,9.816576725196297648e-01,9.836692152803290234e-01,9.857139496404569989e-01,9.834647711862958275e-01,9.849184288540593357e-01,9.847259384305889762e-01,9.849615866615811788e-01,9.839397348871520288e-01,9.844915667750336885e-01,9.863297968924281678e-01,9.859507451643588771e-01,9.885861713676430407e-01,9.852263409010335593e-01,9.888376790961979079e-01,9.875917045913681358e-01,9.862089882428503040e-01,9.853342811178869010e-01,9.886166896974335483e-01,9.865878404981555105e-01,9.896837311774487889e-01,9.873459310894429075e-01,9.884231409699703041e-01,9.869709973937572656e-01,9.874585652029604921e-01,9.885770238419525624e-01,9.877380417506322896e-01,9.903720857801644462e-01,9.889757989432422791e-01,9.887214158504875616e-01,9.878658955609948000e-01,9.886433921572952421e-01,9.913790382965782522e-01,9.904139458488092629e-01,9.899427619780635235e-01,9.894893546272638396e-01,9.889101074477142372e-01,9.872826488642308940e-01,9.877927064820448688e-01,9.886643963136499957e-01,9.879374113725738482e-01,9.861093126464114400e-01,9.853253198157009285e-01,9.853546978719612826e-01,9.834151239010067158e-01,9.849557415885008549e-01,9.846733279308590436e-01,9.850822931291128848e-01,9.820715966583117851e-01,9.844610056906782924e-01,9.818960494648124593e-01,9.834447445856994152e-01,9.807678689271613903e-01,9.824999455618381727e-01,9.825433287224520917e-01,9.831553293670703964e-01,9.825533722782793244e-01,9.817628040023518299e-01,9.832055963367078988e-01,9.845225424043277940e-01,9.825048519240537903e-01,9.826806491819968237e-01,9.819638885895388691e-01,9.808870332234737033e-01,9.827026603421590289e-01,9.803565123000667070e-01,9.799559615426540748e-01,9.815202584615786430e-01,9.802316809113086338e-01,9.799498093406772137e-01,9.831428198887343095e-01,9.838923457628445668e-01,9.809875043387712434e-01,9.812603479291122088e-01,9.820184393992982264e-01,9.823928872604296147e-01,9.811480135545815884e-01,9.806653972559862265e-01,9.815498880025150807e-01,9.805021364598777156e-01,9.818034740117743686e-01,9.813054809605900042e-01,9.824917242724910960e-01,9.830621791366603857e-01,9.820773266704150295e-01,9.810415123966205186e-01,9.823973083105240756e-01,9.821049690716329161e-01,9.786300924844928417e-01,9.788347739192206909e-01,9.820675610106132103e-01,9.808768656716417844e-01,9.826771327810699397e-01,9.820907695204604826e-01,9.809686228146350384e-01,9.801715924376027678e-01,9.801896456126830692e-01,9.824906979246352812e-01,9.845514168448767922e-01,9.822925703671437914e-01,9.813395691630498741e-01,9.826410746881008018e-01,9.837446170578638682e-01,9.810544968576353497e-01,9.846374184597137535e-01,9.844268700572035291e-01,9.815922112446180403e-01,9.828345955578184912e-01,9.832800018594992641e-01,9.810045057260268209e-01,9.838556130087339202e-01,9.797611835602461072e-01,9.823831530188821270e-01,9.823370726169695644e-01,9.839157615108921062e-01,9.843096903374722872e-01,9.823800075984634450e-01,9.836429499479432126e-01,9.827996178016029649e-01,9.817732878439909827e-01,9.852486664047527265e-01,9.829236971416183133e-01,9.855635757912271089e-01,9.869364859273483948e-01,9.863922787523022873e-01,9.831122463978780868e-01,9.843636339143787550e-01,9.882239037587376984e-01,9.904201840083467490e-01,9.880873332352275717e-01,9.919783000611964718e-01,9.896332235630197482e-01,9.917240947739771606e-01,9.906296986828652118e-01,9.917119590497592840e-01,9.893005925427588165e-01,9.953527860941061567e-01,9.978910442463093666e-01,1.005328716557066349e+00,1.018980427856167603e+00,1.028458959731812117e+00,1.056398217684128893e+00,1.090735917392309462e+00,1.121796764439376481e+00,1.200964457512543104e+00,1.279885843282280833e+00,1.344637371945041515e+00,1.405788503774013654e+00,1.469092532648733185e+00,1.514490246693456221e+00,1.525994677743882644e+00,1.534762100082034397e+00,1.510156495224429296e+00,1.475012730050192955e+00,1.477623229818884720e+00,1.415864022662889354e+00
